emgT,emg,rms,mnf,mdf
0.000000,-0.043431,0.000000,0.000000,0.000000
1.000000,-0.045033,0.004343,0.000000,0.000000
2.000000,-0.047856,0.006256,0.000000,0.000000
3.000000,-0.045720,0.007877,0.000000,0.000000
4.000000,-0.043431,0.009108,0.000000,0.000000
5.000000,-0.042058,0.010090,0.000000,0.000000
6.000000,-0.042821,0.010932,0.000000,0.000000
7.000000,-0.044347,0.011740,0.000000,0.000000
8.000000,-0.044347,0.012550,0.000000,0.000000
9.000000,-0.043812,0.013310,0.000000,0.000000
10.000000,-0.043965,0.014013,0.000000,0.000000
11.000000,-0.044575,0.014686,0.000000,0.000000
12.000000,-0.043355,0.015348,0.000000,0.000000
13.000000,-0.041524,0.015949,0.000000,0.000000
14.000000,-0.038090,0.016480,0.000000,0.000000
15.000000,-0.035954,0.016915,0.000000,0.000000
16.000000,-0.033207,0.017293,0.000000,0.000000
17.000000,-0.031682,0.017609,0.000000,0.000000
18.000000,-0.033055,0.017891,0.000000,0.000000
19.000000,-0.038930,0.018194,0.000000,0.000000
20.000000,-0.043278,0.018606,0.000000,0.000000
21.000000,-0.043202,0.019103,0.000000,0.000000
22.000000,-0.045338,0.019585,0.000000,0.000000
23.000000,-0.039998,0.020103,0.000000,0.000000
24.000000,-0.032216,0.020497,0.000000,0.000000
25.000000,-0.029316,0.020749,0.000000,0.000000
26.000000,-0.025731,0.020955,0.000000,0.000000
27.000000,-0.028401,0.021112,0.000000,0.000000
28.000000,-0.030461,0.021302,0.000000,0.000000
29.000000,-0.032750,0.021519,0.000000,0.000000
30.000000,-0.030537,0.021767,0.000000,0.000000
31.000000,-0.030156,0.021980,0.000000,0.000000
32.000000,-0.030842,0.022186,0.000000,0.000000
33.000000,-0.035954,0.022399,0.000000,0.000000
34.000000,-0.039006,0.022686,0.000000,0.000000
35.000000,-0.039845,0.023019,0.000000,0.000000
36.000000,-0.036564,0.023361,0.000000,0.000000
37.000000,-0.030232,0.023646,0.000000,0.000000
38.000000,-0.025502,0.023838,0.000000,0.000000
39.000000,-0.020771,0.023974,0.000000,0.000000
40.000000,-0.020695,0.024064,0.000000,0.000000
41.000000,-0.025807,0.024153,0.000000,0.000000
42.000000,-0.027333,0.024290,0.000000,0.000000
43.000000,-0.037785,0.024443,0.000000,0.000000
44.000000,-0.042210,0.024734,0.000000,0.000000
45.000000,-0.041905,0.025091,0.000000,0.000000
46.000000,-0.036870,0.025439,0.000000,0.000000
47.000000,-0.031834,0.025705,0.000000,0.000000
48.000000,-0.029850,0.025901,0.000000,0.000000
49.000000,-0.029011,0.026073,0.000000,0.000000
50.000000,-0.029164,0.026233,0.000000,0.000000
51.000000,-0.029927,0.026395,0.000000,0.000000
52.000000,-0.031834,0.026564,0.000000,0.000000
53.000000,-0.034199,0.026754,0.000000,0.000000
54.000000,-0.033970,0.026972,0.000000,0.000000
55.000000,-0.031910,0.027185,0.000000,0.000000
56.000000,-0.032673,0.027372,0.000000,0.000000
57.000000,-0.030079,0.027566,0.000000,0.000000
58.000000,-0.029164,0.027730,0.000000,0.000000
59.000000,-0.032597,0.027883,0.000000,0.000000
60.000000,-0.029774,0.028072,0.000000,0.000000
61.000000,-0.026875,0.028230,0.000000,0.000000
62.000000,-0.027790,0.028358,0.000000,0.000000
63.000000,-0.027714,0.028493,0.000000,0.000000
64.000000,-0.025425,0.028628,0.000000,0.000000
65.000000,-0.023213,0.028741,0.000000,0.000000
66.000000,-0.022297,0.028834,0.000000,0.000000
67.000000,-0.021229,0.028920,0.000000,0.000000
68.000000,-0.021229,0.028998,0.000000,0.000000
69.000000,-0.021077,0.029076,0.000000,0.000000
70.000000,-0.020695,0.029152,0.000000,0.000000
71.000000,-0.023823,0.029225,0.000000,0.000000
72.000000,-0.025731,0.029322,0.000000,0.000000
73.000000,-0.021458,0.029435,0.000000,0.000000
74.000000,-0.019627,0.029513,0.000000,0.000000
75.000000,-0.017796,0.029578,0.000000,0.000000
76.000000,-0.018482,0.029632,0.000000,0.000000
77.000000,-0.021687,0.029689,0.000000,0.000000
78.000000,-0.020237,0.029768,0.000000,0.000000
79.000000,-0.020237,0.029837,0.000000,0.000000
80.000000,-0.018101,0.029906,0.000000,0.000000
81.000000,-0.021000,0.029960,1.307502,0.000000
82.000000,-0.022984,0.030034,1.318663,0.000000
83.000000,-0.021382,0.030122,1.334677,0.000000
84.000000,-0.021000,0.030197,1.358007,0.000000
85.000000,-0.021687,0.030270,1.389901,0.000000
86.000000,-0.019703,0.030348,1.430884,0.000000
87.000000,-0.018559,0.030412,1.479575,0.000000
88.000000,-0.016957,0.030468,1.534759,0.000000
89.000000,-0.020924,0.030516,1.597790,0.000000
90.000000,-0.019703,0.030587,1.669470,0.000000
91.000000,-0.018330,0.030651,1.748864,0.000000
92.000000,-0.018177,0.030705,1.834987,0.000000
93.000000,-0.018254,0.030759,1.931108,0.000000
94.000000,-0.016346,0.030813,2.039049,0.000000
95.000000,-0.018711,0.030857,2.163512,0.000000
96.000000,-0.018101,0.030913,2.303113,0.000000
97.000000,-0.017033,0.030966,2.460940,0.000000
98.000000,-0.015126,0.031013,2.635015,0.000000
99.000000,-0.017185,0.031050,2.816135,0.000000
100.000000,-0.028210,0.031097,2.985995,0.000000
101.000000,-0.023938,0.030922,3.146527,0.000000
102.000000,-0.022717,0.030685,3.312979,0.000000
103.000000,-0.025692,0.030395,3.475987,0.000000
104.000000,-0.024166,0.030159,3.665811,0.000000
105.000000,-0.026837,0.029942,3.895429,0.000000
106.000000,-0.028973,0.029766,4.146614,0.000000
107.000000,-0.027371,0.029599,4.424452,0.000000
108.000000,-0.025845,0.029393,4.697969,0.000000
109.000000,-0.025998,0.029171,4.967639,0.000000
110.000000,-0.026761,0.028957,5.230012,3.906250
111.000000,-0.028210,0.028746,5.509639,3.906250
112.000000,-0.027752,0.028538,5.795892,3.906250
113.000000,-0.029965,0.028343,6.081515,3.906250
114.000000,-0.030804,0.028197,6.337152,3.906250
115.000000,-0.032254,0.028108,6.574038,3.906250
116.000000,-0.032635,0.028063,6.805569,3.906250
117.000000,-0.027066,0.028056,7.057984,3.906250
118.000000,-0.026455,0.028008,7.351488,3.906250
119.000000,-0.021420,0.027938,7.676677,3.906250
120.000000,-0.021191,0.027748,8.034742,3.906250
121.000000,-0.022717,0.027490,8.394085,3.906250
122.000000,-0.022030,0.027243,8.716489,3.906250
123.000000,-0.022107,0.026954,9.025755,3.906250
124.000000,-0.024548,0.026747,9.256794,3.906250
125.000000,-0.025616,0.026665,9.453408,3.906250
126.000000,-0.028515,0.026627,9.649626,3.906250
127.000000,-0.025006,0.026655,9.877916,3.906250
128.000000,-0.021496,0.026621,10.137271,3.906250
129.000000,-0.013180,0.026534,10.406057,3.906250
130.000000,-0.005169,0.026364,10.676069,3.906250
131.000000,-0.004101,0.026191,10.940268,3.906250
132.000000,-0.006237,0.026020,11.194367,3.906250
133.000000,-0.015469,0.025845,11.430708,3.906250
134.000000,-0.019207,0.025640,11.646602,3.906250
135.000000,-0.020809,0.025414,11.859495,3.906250
136.000000,-0.024929,0.025186,12.081064,3.906250
137.000000,-0.021649,0.025044,12.292912,3.906250
138.000000,-0.022488,0.024955,12.516174,3.906250
139.000000,-0.019284,0.024926,12.739854,3.906250
140.000000,-0.014477,0.024914,12.937389,3.906250
141.000000,-0.013714,0.024870,13.147049,3.906250
142.000000,-0.015087,0.024773,13.368494,3.906250
143.000000,-0.014401,0.024668,13.578959,3.906250
144.000000,-0.019512,0.024420,13.784367,3.906250
145.000000,-0.025158,0.024131,13.997036,3.906250
146.000000,-0.026379,0.023897,14.215902,3.906250
147.000000,-0.026761,0.023758,14.433393,3.906250
148.000000,-0.026608,0.023695,14.650066,3.906250
149.000000,-0.024929,0.023657,14.860146,3.906250
150.000000,-0.022030,0.023610,15.064459,3.906250
151.000000,-0.020657,0.023533,15.264153,3.906250
152.000000,-0.019665,0.023433,15.442414,3.906250
153.000000,-0.019131,0.023299,15.606179,3.906250
154.000000,-0.018826,0.023126,15.784272,3.906250
155.000000,-0.018521,0.022952,15.964474,3.906250
156.000000,-0.021801,0.022805,16.146212,3.906250
157.000000,-0.022335,0.022674,16.318462,3.906250
158.000000,-0.020047,0.022585,16.471514,3.906250
159.000000,-0.017376,0.022485,16.624846,3.906250
160.000000,-0.016842,0.022315,16.772593,3.906250
161.000000,-0.014935,0.022180,16.922640,3.906250
162.000000,-0.017758,0.022067,17.056728,3.906250
163.000000,-0.019512,0.021963,17.179230,7.812500
164.000000,-0.018978,0.021875,17.302649,7.812500
165.000000,-0.016308,0.021809,17.422731,7.812500
166.000000,-0.017605,0.021747,17.536308,7.812500
167.000000,-0.018063,0.021704,17.651382,7.812500
168.000000,-0.018750,0.021675,17.765055,7.812500
169.000000,-0.017300,0.021652,17.878212,7.812500
170.000000,-0.018368,0.021619,17.976755,7.812500
171.000000,-0.020504,0.021598,18.074396,7.812500
172.000000,-0.021191,0.021563,18.171148,7.812500
173.000000,-0.020123,0.021514,18.264112,7.812500
174.000000,-0.020733,0.021501,18.352930,7.812500
175.000000,-0.017987,0.021511,18.441368,7.812500
176.000000,-0.017910,0.021513,18.521645,7.812500
177.000000,-0.019512,0.021508,18.599434,7.812500
178.000000,-0.019360,0.021487,18.675301,7.812500
179.000000,-0.020428,0.021479,18.750092,7.812500
180.000000,-0.013561,0.021481,18.818502,7.812500
181.000000,-0.010281,0.021448,18.871670,7.812500
182.000000,-0.008602,0.021369,18.928301,7.812500
183.000000,-0.011349,0.021263,18.984446,7.812500
184.000000,-0.013714,0.021185,19.036552,7.812500
185.000000,-0.019055,0.021126,19.088671,7.812500
186.000000,-0.018368,0.021100,19.137989,7.812500
187.000000,-0.015698,0.021088,19.185610,7.812500
188.000000,-0.010281,0.021065,19.233685,7.812500
189.000000,-0.006161,0.021022,19.281811,7.812500
190.000000,-0.002651,0.020926,19.329275,7.812500
191.000000,0.000629,0.020835,19.376114,7.812500
192.000000,-0.002193,0.020754,19.422577,7.812500
193.000000,-0.012570,0.020676,19.469002,7.812500
194.000000,-0.018673,0.020633,19.515703,7.812500
195.000000,-0.019894,0.020653,19.562986,7.812500
196.000000,-0.016766,0.020664,19.611286,7.812500
197.000000,-0.015927,0.020653,19.660595,7.812500
198.000000,-0.017910,0.020644,19.708340,7.812500
199.000000,-0.014477,0.020666,19.755871,7.812500
200.000000,-0.016155,0.020646,19.800272,7.812500
201.000000,-0.015164,0.020516,19.843733,7.812500
202.000000,-0.013256,0.020432,19.887695,7.812500
203.000000,-0.014324,0.020348,19.930614,7.812500
204.000000,-0.012493,0.020236,19.973127,7.812500
205.000000,-0.017453,0.020130,20.017899,7.812500
206.000000,-0.025463,0.020027,20.064003,7.812500
207.000000,-0.028973,0.019979,20.114075,7.812500
208.000000,-0.029736,0.020002,20.160275,7.812500
209.000000,-0.021038,0.020056,20.200224,7.812500
210.000000,-0.011654,0.019997,20.223890,7.812500
211.000000,-0.005474,0.019852,20.228704,7.812500
212.000000,-0.001888,0.019658,20.225183,7.812500
213.000000,-0.006466,0.019462,20.219593,7.812500
214.000000,-0.010662,0.019241,20.226698,7.812500
215.000000,-0.013561,0.019023,20.237139,7.812500
216.000000,-0.014706,0.018796,20.246807,7.812500
217.000000,-0.017300,0.018569,20.262344,7.812500
218.000000,-0.015240,0.018452,20.268265,7.812500
219.000000,-0.016461,0.018325,20.273123,7.812500
220.000000,-0.018215,0.018273,20.266857,7.812500
221.000000,-0.017071,0.018241,20.246279,7.812500
222.000000,-0.014172,0.018180,20.221670,7.812500
223.000000,-0.014096,0.018101,20.200748,7.812500
224.000000,-0.013867,0.018021,20.177401,7.812500
225.000000,-0.015240,0.017907,20.169151,7.812500
226.000000,-0.017605,0.017788,20.177752,7.812500
227.000000,-0.019436,0.017646,20.187738,7.812500
228.000000,-0.024090,0.017576,20.190399,7.812500
229.000000,-0.025540,0.017609,20.185118,7.812500
230.000000,-0.023938,0.017745,20.172808,7.812500
231.000000,-0.022030,0.017898,20.145647,7.812500
232.000000,-0.020123,0.018028,20.120340,7.812500
233.000000,-0.018521,0.018130,20.103436,7.812500
234.000000,-0.019741,0.018158,20.088999,7.812500
235.000000,-0.018978,0.018164,20.079599,7.812500
236.000000,-0.016384,0.018144,20.063808,7.812500
237.000000,-0.011654,0.018046,20.055433,7.812500
238.000000,-0.013104,0.017954,20.044134,7.812500
239.000000,-0.015850,0.017861,20.028616,7.812500
240.000000,-0.013561,0.017827,20.003521,7.812500
241.000000,-0.013409,0.017820,19.974413,7.812500
242.000000,-0.014172,0.017817,19.925503,7.812500
243.000000,-0.012188,0.017810,19.879263,7.812500
244.000000,-0.011120,0.017793,19.836706,7.812500
245.000000,-0.012112,0.017721,19.799259,7.812500
246.000000,-0.006847,0.017583,19.767000,7.812500
247.000000,-0.006237,0.017398,19.753010,7.812500
248.000000,-0.010357,0.017202,19.754950,7.812500
249.000000,-0.013104,0.017026,19.761801,7.812500
250.000000,-0.014630,0.016894,19.749924,7.812500
251.000000,-0.012417,0.016813,19.739643,7.812500
252.000000,-0.013867,0.016732,19.708927,7.812500
253.000000,-0.012875,0.016674,19.667917,7.812500
254.000000,-0.014172,0.016614,19.623041,7.812500
255.000000,-0.014248,0.016567,19.596991,7.812500
256.000000,-0.014401,0.016525,19.576460,7.812500
257.000000,-0.012112,0.016444,19.563898,7.812500
258.000000,-0.014782,0.016336,19.563217,3.906250
259.000000,-0.014096,0.016280,19.563673,3.906250
260.000000,-0.015011,0.016248,19.568533,3.906250
261.000000,-0.014019,0.016230,19.539377,3.906250
262.000000,-0.015927,0.016222,19.490229,3.906250
263.000000,-0.019512,0.016203,19.437502,3.906250
264.000000,-0.018673,0.016203,19.407082,3.906250
265.000000,-0.013333,0.016200,19.387184,3.906250
266.000000,-0.009289,0.016172,19.402592,3.906250
267.000000,-0.009976,0.016103,19.421803,3.906250
268.000000,-0.006771,0.016033,19.420481,3.906250
269.000000,-0.012875,0.015937,19.411251,3.906250
270.000000,-0.012417,0.015895,19.400496,3.906250
271.000000,-0.013943,0.015837,19.376858,3.906250
272.000000,-0.011349,0.015766,19.345522,3.906250
273.000000,-0.010815,0.015664,19.339130,3.906250
274.000000,-0.011196,0.015572,19.386198,3.906250
275.000000,-0.010204,0.015474,19.464031,3.906250
276.000000,-0.009060,0.015402,19.553694,3.906250
277.000000,-0.012799,0.015325,19.634626,3.906250
278.000000,-0.010433,0.015254,19.716043,3.906250
279.000000,-0.009365,0.015166,19.808825,3.906250
280.000000,-0.012036,0.015057,19.880430,3.906250
281.000000,-0.012341,0.015044,19.953648,3.906250
282.000000,-0.010433,0.015060,20.041109,3.906250
283.000000,-0.011120,0.015071,20.130638,3.906250
284.000000,-0.015621,0.015070,20.231741,3.906250
285.000000,-0.016766,0.015088,20.325804,3.906250
286.000000,-0.015850,0.015061,20.425583,3.906250
287.000000,-0.013943,0.015032,20.554581,7.812500
288.000000,-0.010967,0.015015,20.692215,7.812500
289.000000,-0.014096,0.015020,20.836220,7.812500
290.000000,-0.016079,0.015073,20.944445,7.812500
291.000000,-0.012951,0.015157,21.020790,7.812500
292.000000,-0.010891,0.015212,21.086685,7.812500
293.000000,-0.013561,0.015249,21.145800,7.812500
294.000000,-0.016079,0.015258,21.215042,7.812500
295.000000,-0.016308,0.015228,21.299622,7.812500
296.000000,-0.011883,0.015185,21.392714,7.812500
297.000000,-0.014019,0.015139,21.490482,7.812500
298.000000,-0.012875,0.015120,21.581650,7.812500
299.000000,-0.010967,0.015069,21.669432,7.812500
300.000000,-0.016690,0.015039,21.760239,7.812500
301.000000,-0.019360,0.015045,21.851591,7.812500
302.000000,-0.020047,0.015093,21.937664,7.812500
303.000000,-0.019512,0.015168,22.019657,7.812500
304.000000,-0.017529,0.015226,22.094397,7.812500
305.000000,-0.018978,0.015275,22.167236,7.812500
306.000000,-0.016842,0.015293,22.240749,7.812500
307.000000,-0.008221,0.015174,22.316525,7.812500
308.000000,-0.005932,0.014917,22.387691,7.812500
309.000000,-0.004788,0.014630,22.447090,7.812500
310.000000,-0.012951,0.014486,22.509947,7.812500
311.000000,-0.018673,0.014497,22.569202,7.812500
312.000000,-0.022030,0.014606,22.621281,7.812500
313.000000,-0.023785,0.014770,22.670994,7.812500
314.000000,-0.023022,0.014947,22.715954,7.812500
315.000000,-0.019818,0.015085,22.759027,7.812500
316.000000,-0.008068,0.015154,22.801451,7.812500
317.000000,0.002232,0.015104,22.842381,7.812500
318.000000,0.006809,0.015007,22.881044,7.812500
319.000000,0.006962,0.014945,22.919535,7.812500
320.000000,0.004444,0.014870,22.957956,7.812500
321.000000,-0.005474,0.014765,22.995836,7.812500
322.000000,-0.013027,0.014676,23.033894,7.812500
323.000000,-0.018521,0.014665,23.072411,7.812500
324.000000,-0.019131,0.014714,23.112043,7.812500
325.000000,-0.017758,0.014773,23.152939,7.812500
326.000000,-0.009442,0.014801,23.191999,7.812500
327.000000,-0.004253,0.014727,23.232296,7.812500
328.000000,0.001316,0.014604,23.269875,7.812500
329.000000,0.002689,0.014404,23.305357,7.812500
330.000000,0.004597,0.014179,23.340242,7.812500
331.000000,-0.002804,0.013983,23.373001,7.812500
332.000000,-0.009670,0.013811,23.406120,7.812500
333.000000,-0.018597,0.013698,23.440598,7.812500
334.000000,-0.023098,0.013699,23.476807,7.812500
335.000000,-0.024319,0.013751,23.516069,7.812500
336.000000,-0.019970,0.013835,23.550714,7.812500
337.000000,-0.018292,0.013882,23.612972,7.812500
338.000000,-0.018902,0.013953,23.662188,7.812500
339.000000,-0.018368,0.014020,23.692616,7.812500
340.000000,-0.015316,0.014051,23.714355,7.812500
341.000000,-0.015164,0.014069,23.733032,7.812500
342.000000,-0.018292,0.014086,23.766624,7.812500
343.000000,-0.017834,0.014134,23.804634,7.812500
344.000000,-0.018978,0.014194,23.842106,7.812500
345.000000,-0.020123,0.014277,23.888157,7.812500
346.000000,-0.016232,0.014367,23.928503,7.812500
347.000000,-0.018368,0.014442,23.971792,7.812500
348.000000,-0.020886,0.014545,24.004354,7.812500
349.000000,-0.016995,0.014658,24.023773,7.812500
350.000000,-0.012112,0.014697,24.035900,7.812500
351.000000,-0.012646,0.014675,24.052097,7.812500
352.000000,-0.012799,0.014677,24.065451,7.812500
353.000000,-0.008831,0.014667,24.097010,7.812500
354.000000,-0.006695,0.014637,24.148357,7.812500
355.000000,-0.006085,0.014583,24.203600,7.812500
356.000000,-0.007763,0.014526,24.256117,7.812500
357.000000,-0.009136,0.014476,24.304237,7.812500
358.000000,-0.007458,0.014454,24.344358,7.812500
359.000000,-0.005016,0.014397,24.371546,7.812500
360.000000,-0.001812,0.014337,24.400316,7.812500
361.000000,-0.001736,0.014259,24.435724,7.812500
362.000000,-0.003719,0.014191,24.474230,7.812500
363.000000,-0.007992,0.014107,24.519245,7.812500
364.000000,-0.011273,0.013994,24.559566,7.812500
365.000000,-0.008907,0.013914,24.608721,7.812500
366.000000,-0.006924,0.013879,24.656591,7.812500
367.000000,-0.006619,0.013865,24.700497,7.812500
368.000000,-0.007839,0.013845,24.735577,7.812500
369.000000,-0.010586,0.013851,24.768993,7.812500
370.000000,-0.009594,0.013831,24.782066,7.812500
371.000000,-0.009747,0.013809,24.799536,7.812500
372.000000,-0.007305,0.013773,24.823626,7.812500
373.000000,-0.009442,0.013745,24.853453,7.812500
374.000000,-0.010357,0.013735,24.885763,7.812500
375.000000,-0.016079,0.013729,24.936073,7.812500
376.000000,-0.017147,0.013785,25.002253,7.812500
377.000000,-0.012493,0.013861,25.075869,7.812500
378.000000,-0.014248,0.013859,25.129230,7.812500
379.000000,-0.015011,0.013893,25.185364,7.812500
380.000000,-0.012341,0.013942,25.223875,7.812500
381.000000,-0.013256,0.013945,25.248739,7.812500
382.000000,-0.013943,0.013953,25.266222,7.812500
383.000000,-0.010662,0.013984,25.301147,7.812500
384.000000,-0.011807,0.013980,25.338404,7.812500
385.000000,-0.010281,0.013943,25.382826,7.812500
386.000000,-0.012341,0.013880,25.437555,7.812500
387.000000,-0.013256,0.013844,25.492182,7.812500
388.000000,-0.013256,0.013837,25.554249,7.812500
389.000000,-0.012417,0.013857,25.575272,7.812500
390.000000,-0.012036,0.013841,25.570602,7.812500
391.000000,-0.014172,0.013800,25.553391,7.812500
392.000000,-0.015087,0.013812,25.554674,7.812500
393.000000,-0.014248,0.013851,25.562790,7.812500
394.000000,-0.011425,0.013858,25.606049,7.812500
395.000000,-0.011196,0.013812,25.648834,7.812500
396.000000,-0.007610,0.013761,25.665749,7.812500
397.000000,-0.000820,0.013731,25.672995,7.812500
398.000000,-0.001125,0.013659,25.676807,7.812500
399.000000,-0.004253,0.013599,25.661776,7.812500
400.000000,-0.009480,0.013561,25.631029,7.812500
401.000000,-0.015202,0.013492,25.621981,7.812500
402.000000,-0.015583,0.013438,25.667088,7.812500
403.000000,-0.015278,0.013379,25.740757,7.812500
404.000000,-0.011540,0.013324,25.820707,7.812500
405.000000,-0.006123,0.013258,25.884315,7.812500
406.000000,-0.004215,0.013136,25.943478,7.812500
407.000000,-0.000095,0.013034,26.014376,7.812500
408.000000,0.002117,0.013008,26.058641,7.812500
409.000000,-0.000782,0.012997,26.102850,7.812500
410.000000,-0.005207,0.012988,26.158026,7.812500
411.000000,-0.010166,0.012934,26.211067,7.812500
412.000000,-0.013905,0.012839,26.270638,7.812500
413.000000,-0.012379,0.012724,26.316113,7.812500
414.000000,-0.012531,0.012561,26.362749,7.812500
415.000000,-0.010243,0.012412,26.438063,7.812500
416.000000,-0.011921,0.012295,26.519327,7.812500
417.000000,-0.009251,0.012327,26.605635,7.812500
418.000000,-0.011692,0.012359,26.649509,7.812500
419.000000,-0.012684,0.012396,26.654915,7.812500
420.000000,-0.011769,0.012441,26.646175,7.812500
421.000000,-0.010624,0.012489,26.629732,7.812500
422.000000,-0.012531,0.012522,26.624458,7.812500
423.000000,-0.017185,0.012517,26.633533,7.812500
424.000000,-0.017262,0.012498,26.651449,7.812500
425.000000,-0.016499,0.012471,26.672819,7.812500
426.000000,-0.018864,0.012453,26.687983,7.812500
427.000000,-0.014973,0.012560,26.701139,7.812500
428.000000,-0.016194,0.012642,26.716085,7.812500
429.000000,-0.020237,0.012744,26.730526,7.812500
430.000000,-0.019932,0.012901,26.742348,7.812500
431.000000,-0.012837,0.013046,26.752701,7.812500
432.000000,-0.009632,0.013106,26.757408,7.812500
433.000000,-0.007877,0.013106,26.761024,7.812500
434.000000,-0.010929,0.012997,26.769020,7.812500
435.000000,-0.013905,0.012837,26.781513,7.812500
436.000000,-0.010853,0.012681,26.792488,7.812500
437.000000,-0.010166,0.012570,26.798107,7.812500
438.000000,-0.009632,0.012477,26.806028,7.812500
439.000000,-0.008030,0.012371,26.812382,7.812500
440.000000,-0.007877,0.012260,26.816004,7.812500
441.000000,-0.010243,0.012189,26.819954,7.812500
442.000000,-0.010166,0.012138,26.821968,7.812500
443.000000,-0.008640,0.012042,26.823828,7.812500
444.000000,-0.009098,0.011941,26.824490,7.812500
445.000000,-0.004063,0.011824,26.823959,7.812500
446.000000,-0.002003,0.011659,26.824514,7.812500
447.000000,-0.001698,0.011547,26.828398,7.812500
448.000000,-0.004444,0.011401,26.835213,7.812500
449.000000,-0.010624,0.011217,26.843304,7.812500
450.000000,-0.010853,0.011138,26.853920,7.812500
451.000000,-0.007877,0.011125,26.868040,7.812500
452.000000,-0.009327,0.011081,26.886137,7.812500
453.000000,-0.010395,0.011047,26.908569,7.812500
454.000000,-0.010014,0.011060,26.929943,7.812500
455.000000,-0.009022,0.011085,26.955080,7.812500
456.000000,-0.010929,0.011105,26.978298,7.812500
457.000000,-0.009251,0.011132,27.001801,7.812500
458.000000,-0.008488,0.011133,27.028492,7.812500
459.000000,-0.008259,0.011140,27.055264,7.812500
460.000000,-0.009709,0.011159,27.085136,7.812500
461.000000,-0.011616,0.011200,27.120140,7.812500
462.000000,-0.012913,0.011259,27.159838,7.812500
463.000000,-0.015126,0.011327,27.205963,7.812500
464.000000,-0.012455,0.011399,27.249695,7.812500
465.000000,-0.010090,0.011411,27.325787,7.812500
466.000000,-0.009480,0.011421,27.389462,7.812500
467.000000,-0.014363,0.011440,27.433723,7.812500
468.000000,-0.013752,0.011510,27.470409,7.812500
469.000000,-0.011234,0.011566,27.506413,7.812500
470.000000,-0.012531,0.011572,27.563507,7.812500
471.000000,-0.008869,0.011600,27.629101,7.812500
472.000000,-0.009861,0.011593,27.696709,7.812500
473.000000,-0.010319,0.011612,27.777193,7.812500
474.000000,-0.011540,0.011619,27.853502,7.812500
475.000000,-0.009861,0.011630,27.936523,7.812500
476.000000,-0.009022,0.011561,28.009691,7.812500
477.000000,-0.011692,0.011468,28.070662,7.812500
478.000000,-0.014286,0.011460,28.127459,7.812500
479.000000,-0.014668,0.011460,28.191399,7.812500
480.000000,-0.010395,0.011456,28.253826,7.812500
481.000000,-0.009022,0.011437,28.338768,7.812500
482.000000,-0.009174,0.011395,28.447990,7.812500
483.000000,-0.009861,0.011347,28.564051,7.812500
484.000000,-0.009709,0.011340,28.679533,7.812500
485.000000,-0.008793,0.011320,28.792982,7.812500
486.000000,-0.009327,0.011307,28.900156,7.812500
487.000000,-0.011082,0.011278,28.994659,7.812500
488.000000,-0.011463,0.011255,29.092888,7.812500
489.000000,-0.016041,0.011235,29.200047,7.812500
490.000000,-0.018482,0.011281,29.311850,7.812500
491.000000,-0.011234,0.011368,29.432196,7.812500
492.000000,-0.012379,0.011335,29.548712,7.812500
493.000000,-0.013600,0.011302,29.676571,7.812500
494.000000,-0.007877,0.011294,29.804377,7.812500
495.000000,-0.001850,0.011264,29.928839,7.812500
496.000000,0.000134,0.011209,30.044409,7.812500
497.000000,-0.000401,0.011184,30.158920,7.812500
498.000000,-0.007649,0.011183,30.251328,7.812500
499.000000,-0.014820,0.011209,30.349186,7.812500
500.000000,-0.020275,0.011298,30.454802,7.812500
501.000000,-0.016613,0.011440,30.566942,7.812500
502.000000,-0.014630,0.011459,30.681671,7.812500
503.000000,-0.007382,0.011447,30.816309,7.812500
504.000000,0.000248,0.011368,30.968109,7.812500
505.000000,0.003300,0.011310,31.127522,7.812500
506.000000,0.002766,0.011298,31.263086,7.812500
507.000000,-0.003033,0.011293,31.400381,7.812500
508.000000,-0.010281,0.011297,31.516945,7.812500
509.000000,-0.015621,0.011342,31.616402,7.812500
510.000000,-0.018292,0.011449,31.704979,7.812500
511.000000,-0.015774,0.011582,31.810978,7.812500
512.000000,-0.013943,0.011645,31.917639,7.812500
513.000000,-0.010433,0.011646,32.030102,7.812500
514.000000,-0.009976,0.011627,32.151680,7.812500
515.000000,-0.002575,0.011602,32.269535,7.812500
516.000000,-0.002041,0.011559,32.392143,7.812500
517.000000,-0.002422,0.011499,32.464378,7.812500
518.000000,-0.007229,0.011465,32.503429,7.812500
519.000000,-0.014553,0.011428,32.524014,7.812500
520.000000,-0.021191,0.011450,32.561890,7.812500
521.000000,-0.019970,0.011585,32.603539,7.812500
522.000000,-0.012188,0.011708,32.680786,7.812500
523.000000,-0.007839,0.011704,32.752708,7.812500
524.000000,-0.003567,0.011604,32.790546,7.812500
525.000000,0.003529,0.011480,32.811684,7.812500
526.000000,-0.000973,0.011366,32.824203,7.812500
527.000000,-0.004025,0.011209,32.810299,7.812500
528.000000,-0.009670,0.011116,32.773071,7.812500
529.000000,-0.011654,0.011040,32.755093,7.812500
530.000000,-0.014477,0.010915,32.793785,7.812500
531.000000,-0.010586,0.010829,32.860916,7.812500
532.000000,-0.009136,0.010805,32.931038,7.812500
533.000000,-0.008297,0.010800,32.976753,7.812500
534.000000,-0.010510,0.010803,33.012192,7.812500
535.000000,-0.008450,0.010799,33.056507,7.812500
536.000000,-0.007763,0.010743,33.065971,7.812500
537.000000,-0.006619,0.010716,33.070847,7.812500
538.000000,-0.011578,0.010688,33.083797,7.812500
539.000000,-0.013790,0.010707,33.089993,7.812500
540.000000,-0.011654,0.010766,33.099728,7.812500
541.000000,-0.014706,0.010800,33.089302,7.812500
542.000000,-0.018215,0.010851,33.077232,7.812500
543.000000,-0.012799,0.010956,33.094868,7.812500
544.000000,-0.010967,0.010997,33.115894,7.812500
545.000000,-0.014248,0.011014,33.139866,7.812500
546.000000,-0.012036,0.011098,33.113308,7.812500
547.000000,-0.014019,0.011161,33.040886,7.812500
548.000000,-0.012951,0.011248,32.948837,7.812500
549.000000,-0.012341,0.011314,32.845310,7.812500
550.000000,-0.010662,0.011331,32.753551,7.812500
551.000000,-0.008679,0.011329,32.676575,7.812500
552.000000,-0.007458,0.011335,32.609814,7.812500
553.000000,-0.006771,0.011321,32.545792,7.812500
554.000000,-0.008907,0.011294,32.474712,7.812500
555.000000,-0.008984,0.011284,32.399876,7.812500
556.000000,-0.013333,0.011284,32.327354,7.812500
557.000000,-0.011196,0.011310,32.254696,7.812500
558.000000,-0.008831,0.011327,32.178017,7.812500
559.000000,-0.007839,0.011330,32.098324,7.812500
560.000000,-0.006008,0.011327,32.012547,7.812500
561.000000,-0.005932,0.011301,31.927143,7.812500
562.000000,-0.005398,0.011257,31.847750,7.812500
563.000000,-0.008068,0.011196,31.774424,7.812500
564.000000,-0.012646,0.011123,31.700432,7.812500
565.000000,-0.008145,0.011125,31.622555,7.812500
566.000000,-0.006390,0.011109,31.548441,7.812500
567.000000,-0.009670,0.011087,31.472973,7.812500
568.000000,-0.006771,0.011036,31.394840,7.812500
569.000000,-0.010739,0.010971,31.317837,7.812500
570.000000,-0.010586,0.010966,31.238989,7.812500
571.000000,-0.006085,0.010945,31.161114,7.812500
572.000000,-0.007000,0.010926,31.084574,7.812500
573.000000,-0.006237,0.010904,31.007624,7.812500
574.000000,-0.007458,0.010873,30.932304,7.812500
575.000000,-0.010891,0.010837,30.863373,7.812500
576.000000,-0.013256,0.010847,30.800636,7.812500
577.000000,-0.009823,0.010890,30.740633,7.812500
578.000000,-0.010357,0.010872,30.684669,7.812500
579.000000,-0.011349,0.010827,30.633181,7.812500
580.000000,-0.012722,0.010787,30.586439,7.812500
581.000000,-0.009365,0.010812,30.544878,7.812500
582.000000,-0.012112,0.010815,30.504395,7.812500
583.000000,-0.009899,0.010844,30.468794,7.812500
584.000000,-0.009899,0.010844,30.434032,7.812500
585.000000,-0.013256,0.010846,30.403637,7.812500
586.000000,-0.011654,0.010891,30.379200,7.812500
587.000000,-0.013714,0.010914,30.356352,7.812500
588.000000,-0.011273,0.010944,30.337091,7.812500
589.000000,-0.011654,0.010942,30.324106,7.812500
590.000000,-0.013867,0.010886,30.316847,7.812500
591.000000,-0.016461,0.010817,30.317684,7.812500
592.000000,-0.015621,0.010884,30.317968,7.812500
593.000000,-0.015774,0.010926,30.353933,7.812500
594.000000,-0.009289,0.010955,30.378675,7.812500
595.000000,-0.012722,0.010966,30.385260,7.812500
596.000000,-0.011196,0.011038,30.386623,7.812500
597.000000,-0.010967,0.011094,30.388941,7.812500
598.000000,-0.007382,0.011148,30.414499,7.812500
599.000000,-0.003414,0.011147,30.450026,7.812500
600.000000,-0.003109,0.011053,30.488741,7.812500
601.000000,-0.003185,0.010870,30.541563,7.812500
602.000000,-0.007458,0.010747,30.590904,7.812500
603.000000,-0.011578,0.010673,30.649090,7.812500
604.000000,-0.014248,0.010710,30.699198,7.812500
605.000000,-0.015087,0.010804,30.738235,7.812500
606.000000,-0.012188,0.010904,30.776176,7.812500
607.000000,-0.006847,0.010969,30.822117,7.812500
608.000000,0.001926,0.010986,30.867624,7.812500
609.000000,0.005436,0.010939,30.937140,7.812500
610.000000,0.006657,0.010841,31.033016,7.812500
611.000000,0.001087,0.010706,31.137064,7.812500
612.000000,-0.006771,0.010590,31.242147,7.812500
613.000000,-0.016384,0.010519,31.346491,7.812500
614.000000,-0.016461,0.010595,31.446215,7.812500
615.000000,-0.011883,0.010676,31.533581,7.812500
616.000000,-0.011883,0.010738,31.626228,7.812500
617.000000,-0.010128,0.010802,31.729828,7.812500
618.000000,-0.009365,0.010847,31.839689,7.812500
619.000000,-0.008297,0.010863,31.958836,7.812500
620.000000,-0.009213,0.010797,32.075054,7.812500
621.000000,-0.007839,0.010627,32.205162,7.812500
622.000000,-0.011883,0.010467,32.336216,7.812500
623.000000,-0.013485,0.010464,32.464405,7.812500
624.000000,-0.014630,0.010521,32.585091,7.812500
625.000000,-0.014782,0.010616,32.705711,7.812500
626.000000,-0.015240,0.010713,32.804646,7.812500
627.000000,-0.013485,0.010820,32.911079,7.812500
628.000000,-0.014630,0.010897,33.025894,7.812500
629.000000,-0.014096,0.010952,33.148388,7.812500
630.000000,-0.015698,0.010980,33.275211,7.812500
631.000000,-0.012417,0.010997,33.424461,7.812500
632.000000,-0.012722,0.011016,33.592873,7.812500
633.000000,-0.010586,0.011052,33.769691,7.812500
634.000000,-0.008450,0.011071,33.923321,7.812500
635.000000,-0.007534,0.011054,34.079285,7.812500
636.000000,-0.007763,0.011047,34.214581,7.812500
637.000000,-0.010510,0.011047,34.333366,7.812500
638.000000,-0.010967,0.011077,34.442436,7.812500
639.000000,-0.011654,0.011071,34.570644,7.812500
640.000000,-0.007916,0.011046,34.700222,7.812500
641.000000,-0.008297,0.011013,34.836422,7.812500
642.000000,-0.006695,0.010946,34.982674,7.812500
643.000000,-0.007916,0.010814,35.125576,7.812500
644.000000,-0.008221,0.010767,35.274273,7.812500
645.000000,-0.007382,0.010743,35.371517,7.812500
646.000000,-0.007687,0.010674,35.434952,7.812500
647.000000,-0.010052,0.010633,35.480045,7.812500
648.000000,-0.007153,0.010588,35.543598,7.812500
649.000000,-0.006161,0.010533,35.611259,7.812500
650.000000,-0.008297,0.010479,35.716106,7.812500
651.000000,-0.009823,0.010457,35.815662,7.812500
652.000000,-0.009747,0.010467,35.879757,7.812500
653.000000,-0.008145,0.010486,35.928562,11.718750
654.000000,-0.012493,0.010496,35.969994,11.718750
655.000000,-0.011959,0.010532,35.984333,11.718750
656.000000,-0.009136,0.010562,35.973866,11.718750
657.000000,-0.009060,0.010517,35.982517,11.718750
658.000000,-0.010586,0.010497,36.050579,11.718750
659.000000,-0.010204,0.010513,36.148991,11.718750
660.000000,-0.010357,0.010533,36.251019,11.718750
661.000000,-0.012188,0.010567,36.327602,11.718750
662.000000,-0.008526,0.010620,36.393555,11.718750
663.000000,-0.011196,0.010641,36.468502,11.718750
664.000000,-0.011654,0.010669,36.506733,11.718750
665.000000,-0.014630,0.010658,36.539383,11.718750
666.000000,-0.011501,0.010727,36.579189,11.718750
667.000000,-0.011730,0.010769,36.610771,11.718750
668.000000,-0.010281,0.010790,36.646297,11.718750
669.000000,-0.009594,0.010818,36.662521,11.718750
670.000000,-0.007000,0.010807,36.678928,11.718750
671.000000,-0.008755,0.010778,36.726753,11.718750
672.000000,-0.012417,0.010796,36.777443,11.718750
673.000000,-0.012188,0.010845,36.830162,11.718750
674.000000,-0.013104,0.010895,36.828930,11.718750
675.000000,-0.011807,0.010948,36.780281,11.718750
676.000000,-0.010967,0.010958,36.709591,11.718750
677.000000,-0.009518,0.010932,36.625908,11.718750
678.000000,-0.010052,0.010930,36.554016,11.718750
679.000000,-0.009899,0.010927,36.498116,11.718750
680.000000,-0.011273,0.010913,36.452583,11.718750
681.000000,-0.013867,0.010897,36.409019,11.718750
682.000000,-0.013561,0.010945,36.356796,11.718750
683.000000,-0.014782,0.010962,36.299374,11.718750
684.000000,-0.014935,0.011016,36.243618,11.718750
685.000000,-0.012570,0.011073,36.186951,11.718750
686.000000,-0.006847,0.011065,36.125317,11.718750
687.000000,-0.004177,0.011025,36.059761,11.718750
688.000000,-0.002804,0.010947,35.986877,11.718750
689.000000,0.000172,0.010893,35.913296,11.718750
690.000000,-0.003185,0.010830,35.845009,11.718750
691.000000,-0.009823,0.010746,35.782177,11.718750
692.000000,-0.011501,0.010664,35.718277,11.718750
693.000000,-0.014019,0.010612,35.649982,11.718750
694.000000,-0.010891,0.010587,35.585712,11.718750
695.000000,-0.006085,0.010602,35.519070,11.718750
696.000000,-0.002270,0.010543,35.448372,11.718750
697.000000,0.003986,0.010486,35.377918,11.718750
698.000000,0.006352,0.010436,35.304359,11.718750
699.000000,0.008946,0.010429,35.230907,11.718750
700.000000,0.000134,0.010462,35.158276,11.718750
701.000000,-0.008946,0.010457,35.084549,11.718750
702.000000,-0.012531,0.010491,35.011776,11.718750
703.000000,-0.016423,0.010539,34.944771,11.718750
704.000000,-0.012913,0.010603,34.883442,11.718750
705.000000,-0.009098,0.010586,34.824184,11.718750
706.000000,-0.007954,0.010517,34.768715,11.718750
707.000000,-0.007420,0.010477,34.717113,11.718750
708.000000,-0.010090,0.010481,34.670113,7.812500
709.000000,-0.010777,0.010527,34.627411,7.812500
710.000000,-0.009098,0.010568,34.585533,7.812500
711.000000,-0.010624,0.010587,34.548080,7.812500
712.000000,-0.014820,0.010639,34.512554,7.812500
713.000000,-0.020161,0.010721,34.481239,7.812500
714.000000,-0.020390,0.010785,34.455296,7.812500
715.000000,-0.016499,0.010852,34.431129,7.812500
716.000000,-0.013294,0.010912,34.410461,7.812500
717.000000,-0.013371,0.010928,34.395496,7.812500
718.000000,-0.011845,0.010963,34.385868,7.812500
719.000000,-0.012531,0.010987,34.384472,7.812500
720.000000,-0.012989,0.011027,34.381351,7.812500
721.000000,-0.012226,0.011065,34.416916,7.812500
722.000000,-0.012608,0.011105,34.439476,7.812500
723.000000,-0.009251,0.011113,34.442299,7.812500
724.000000,-0.010853,0.011069,34.438862,7.812500
725.000000,-0.007496,0.011026,34.435867,7.812500
726.000000,-0.006580,0.010952,34.457512,7.812500
727.000000,-0.007954,0.010865,34.489342,7.812500
728.000000,-0.009022,0.010811,34.524090,7.812500
729.000000,-0.015507,0.010749,34.573879,7.812500
730.000000,-0.014057,0.010768,34.619286,7.812500
731.000000,-0.006886,0.010746,34.673416,7.812500
732.000000,-0.004978,0.010696,34.718224,7.812500
733.000000,-0.007191,0.010632,34.750374,7.812500
734.000000,-0.006809,0.010603,34.780510,7.812500
735.000000,-0.003071,0.010591,34.818295,7.812500
736.000000,-0.001621,0.010569,34.855286,7.812500
737.000000,-0.001698,0.010542,34.918617,7.812500
738.000000,-0.003910,0.010491,35.010593,7.812500
739.000000,-0.009480,0.010440,35.110722,7.812500
740.000000,-0.017033,0.010418,35.211456,7.812500
741.000000,-0.016423,0.010527,35.310547,7.812500
742.000000,-0.011540,0.010622,35.403500,7.812500
743.000000,-0.003834,0.010663,35.482788,7.812500
744.000000,0.000439,0.010641,35.566315,7.812500
745.000000,0.004482,0.010609,35.660339,7.812500
746.000000,0.002804,0.010593,35.760086,7.812500
747.000000,-0.002155,0.010569,35.870552,7.812500
748.000000,-0.009556,0.010523,35.978416,7.812500
749.000000,-0.013981,0.010542,36.101875,7.812500
750.000000,-0.014057,0.010617,36.225662,7.812500
751.000000,-0.013142,0.010677,36.346451,7.812500
752.000000,-0.012303,0.010713,36.457844,7.812500
753.000000,-0.013294,0.010739,36.568279,7.812500
754.000000,-0.011692,0.010790,36.654610,7.812500
755.000000,-0.008564,0.010781,36.748829,7.812500
756.000000,-0.008412,0.010749,36.852043,7.812500
757.000000,-0.008183,0.010743,36.962940,11.718750
758.000000,-0.009709,0.010736,37.078011,11.718750
759.000000,-0.012226,0.010728,37.216713,11.718750
760.000000,-0.016499,0.010749,37.376213,11.718750
761.000000,-0.017338,0.010825,37.543732,11.718750
762.000000,-0.013447,0.010895,37.685478,11.718750
763.000000,-0.013523,0.010945,37.829647,11.718750
764.000000,-0.014057,0.010971,37.950607,11.718750
765.000000,-0.013142,0.010999,38.053856,11.718750
766.000000,-0.008564,0.010980,38.147385,11.718750
767.000000,-0.009327,0.010953,38.261135,11.718750
768.000000,-0.010624,0.010930,38.375057,11.718750
769.000000,-0.010243,0.010934,38.495190,11.718750
770.000000,-0.010472,0.010940,38.625370,11.718750
771.000000,-0.006199,0.010967,38.751385,11.718750
772.000000,-0.009327,0.010950,38.882881,11.718750
773.000000,-0.011997,0.010919,38.959930,11.718750
774.000000,-0.011463,0.010917,39.001179,11.718750
775.000000,-0.011006,0.010898,39.022957,11.718750
776.000000,-0.009098,0.010890,39.063873,11.718750
777.000000,-0.008183,0.010873,39.108814,11.718750
778.000000,-0.010929,0.010862,39.191944,11.718750
779.000000,-0.004597,0.010870,39.268375,11.718750
780.000000,-0.001926,0.010835,39.306488,11.718750
781.000000,-0.001316,0.010778,39.329170,11.718750
782.000000,-0.001164,0.010689,39.346531,11.718750
783.000000,-0.004520,0.010603,39.336361,11.718750
784.000000,-0.011616,0.010510,39.300419,11.718750
785.000000,-0.016423,0.010468,39.283295,11.718750
786.000000,-0.018406,0.010521,39.327049,11.718750
787.000000,-0.010548,0.010659,39.402100,11.718750
788.000000,-0.001545,0.010703,39.480968,11.718750
789.000000,0.002575,0.010700,39.533440,11.718750
790.000000,0.002804,0.010703,39.574795,11.718750
791.000000,0.001049,0.010702,39.625328,11.718750
792.000000,-0.002461,0.010657,39.638058,11.718750
793.000000,-0.007954,0.010598,39.645233,11.718750
794.000000,-0.012531,0.010535,39.660297,11.718750
795.000000,-0.015888,0.010553,39.666615,11.718750
796.000000,-0.011997,0.010655,39.676750,11.718750
797.000000,-0.011463,0.010720,39.667000,11.718750
798.000000,-0.010395,0.010773,39.657562,11.718750
799.000000,-0.011616,0.010805,39.680759,11.718750
800.000000,-0.011845,0.010830,39.707069,11.718750
801.000000,-0.011463,0.010895,39.735600,11.718750
802.000000,-0.008869,0.010918,39.708710,11.718750
803.000000,-0.006962,0.010882,39.633217,11.718750
804.000000,-0.012226,0.010780,39.535503,11.718750
805.000000,-0.016804,0.010772,39.424660,11.718750
806.000000,-0.018940,0.010864,39.326237,11.718750
807.000000,-0.017414,0.011000,39.244507,11.718750
808.000000,-0.012226,0.011112,39.173870,11.718750
809.000000,-0.009785,0.011133,39.105610,11.718750
810.000000,-0.008183,0.011124,39.028938,11.718750
811.000000,-0.010166,0.011117,38.947201,11.718750
812.000000,-0.010243,0.011113,38.867481,11.718750
813.000000,-0.013447,0.011061,38.787148,11.718750
814.000000,-0.012608,0.010959,38.702045,11.718750
815.000000,-0.005436,0.010841,38.613113,11.718750
816.000000,-0.006046,0.010728,38.516560,11.718750
817.000000,-0.002232,0.010663,38.419716,11.718750
818.000000,-0.001926,0.010581,38.328754,11.718750
819.000000,-0.007420,0.010516,38.244015,11.718750
820.000000,-0.009785,0.010468,38.159290,11.718750
821.000000,-0.006428,0.010433,38.071472,11.718750
822.000000,-0.004673,0.010381,37.988132,11.718750
823.000000,-0.003300,0.010314,37.902176,11.718750
824.000000,-0.006123,0.010278,37.811554,11.718750
825.000000,-0.004902,0.010239,37.720928,11.718750
826.000000,-0.007267,0.010223,37.625767,11.718750
827.000000,-0.006199,0.010228,37.530094,11.718750
828.000000,-0.010472,0.010216,37.438103,11.718750
829.000000,-0.010548,0.010230,37.347034,11.718750
830.000000,-0.010090,0.010166,37.258286,11.718750
831.000000,-0.009098,0.010119,37.177383,11.718750
832.000000,-0.008640,0.010136,37.103798,11.718750
833.000000,-0.009785,0.010161,37.032726,11.718750
834.000000,-0.009861,0.010183,36.965740,11.718750
835.000000,-0.011158,0.010208,36.901722,11.718750
836.000000,-0.011006,0.010264,36.841537,11.718750
837.000000,-0.013142,0.010321,36.785339,11.718750
838.000000,-0.012531,0.010403,36.730968,11.718750
839.000000,-0.010472,0.010471,36.682308,11.718750
840.000000,-0.013066,0.010481,36.638084,11.718750
841.000000,-0.011921,0.010424,36.600578,11.718750
842.000000,-0.011921,0.010362,36.568886,11.718750
843.000000,-0.012989,0.010366,36.538387,11.718750
844.000000,-0.015278,0.010441,36.511299,11.718750
845.000000,-0.011387,0.010552,36.490311,11.718750
846.000000,-0.007496,0.010603,36.475254,11.718750
847.000000,-0.007115,0.010626,36.469013,11.718750
848.000000,-0.009098,0.010648,36.461712,11.718750
849.000000,-0.012303,0.010644,36.494789,11.718750
850.000000,-0.010700,0.010623,36.515419,11.718750
851.000000,-0.011616,0.010584,36.516579,11.718750
852.000000,-0.010166,0.010566,36.512192,11.718750
853.000000,-0.011387,0.010543,36.509060,11.718750
854.000000,-0.010243,0.010521,36.531719,11.718750
855.000000,-0.009251,0.010506,36.565338,11.718750
856.000000,-0.004749,0.010512,36.602680,11.718750
857.000000,-0.007496,0.010489,36.656010,11.718750
858.000000,-0.007801,0.010484,36.705353,11.718750
859.000000,-0.008106,0.010468,36.764709,11.718750
860.000000,-0.009480,0.010427,36.815189,11.718750
861.000000,-0.007191,0.010340,36.853565,11.718750
862.000000,-0.008412,0.010219,36.890923,11.718750
863.000000,-0.007191,0.010165,36.936634,11.718750
864.000000,-0.008335,0.010100,36.982296,11.718750
865.000000,-0.008412,0.010036,37.055630,11.718750
866.000000,-0.008564,0.009985,37.158958,11.718750
867.000000,-0.003910,0.009985,37.271248,11.718750
868.000000,-0.006504,0.009949,37.384865,11.718750
869.000000,-0.006733,0.009914,37.497543,11.718750
870.000000,-0.008030,0.009884,37.604511,11.718750
871.000000,-0.009174,0.009861,37.697922,11.718750
872.000000,-0.011311,0.009884,37.796295,11.718750
873.000000,-0.010853,0.009905,37.906231,11.718750
874.000000,-0.009022,0.009891,38.023167,11.718750
875.000000,-0.008412,0.009866,38.151600,11.718750
876.000000,-0.005589,0.009841,38.278049,11.718750
877.000000,-0.007877,0.009814,38.420856,11.718750
878.000000,-0.009480,0.009812,38.564354,11.718750
879.000000,-0.009022,0.009797,38.705013,11.718750
880.000000,-0.014973,0.009828,38.837078,11.718750
881.000000,-0.016117,0.009939,38.968803,11.718750
882.000000,-0.012150,0.010068,39.076252,11.718750
883.000000,-0.014820,0.010140,39.192142,11.718750
884.000000,-0.012989,0.010238,39.317265,11.718750
885.000000,-0.011311,0.010255,39.451080,11.718750
886.000000,-0.009861,0.010185,39.589851,11.718750
887.000000,-0.006428,0.010066,39.752995,11.718750
888.000000,0.000820,0.010031,39.937214,11.718750
889.000000,-0.002079,0.010030,40.129486,11.718750
890.000000,-0.006046,0.010029,40.295692,11.718750
891.000000,-0.011769,0.010044,40.464500,11.718750
892.000000,-0.015965,0.010112,40.609848,11.718750
893.000000,-0.015049,0.010234,40.737415,11.718750
894.000000,-0.012226,0.010313,40.855003,11.718750
895.000000,-0.008183,0.010310,40.992901,11.718750
896.000000,-0.003071,0.010219,41.131149,11.718750
897.000000,0.000362,0.010153,41.275421,11.718750
898.000000,0.003109,0.010089,41.429878,11.718750
899.000000,-0.000248,0.010040,41.579880,11.718750
900.000000,-0.003109,0.009972,41.735016,11.718750
901.000000,-0.009365,0.009907,41.834942,11.718750
902.000000,-0.015698,0.009884,41.898331,11.718750
903.000000,-0.014477,0.009969,41.941689,11.718750
904.000000,-0.012570,0.010049,42.004154,11.718750
905.000000,-0.009823,0.010054,42.070019,11.718750
906.000000,-0.008297,0.009961,42.174110,11.718750
907.000000,-0.006085,0.009814,42.270821,11.718750
908.000000,-0.007305,0.009678,42.328224,11.718750
909.000000,-0.011959,0.009628,42.369350,11.718750
910.000000,-0.011425,0.009652,42.404369,11.718750
911.000000,-0.011425,0.009685,42.410969,11.718750
912.000000,-0.008907,0.009699,42.391144,11.718750
913.000000,-0.007153,0.009686,42.389786,11.718750
914.000000,-0.011578,0.009619,42.448879,15.625000
915.000000,-0.012036,0.009606,42.538834,15.625000
916.000000,-0.012951,0.009666,42.631840,15.625000
917.000000,-0.012799,0.009733,42.697514,15.625000
918.000000,-0.011425,0.009815,42.750771,15.625000
919.000000,-0.008602,0.009879,42.812721,15.625000
920.000000,-0.006847,0.009889,42.835678,15.625000
921.000000,-0.006466,0.009864,42.851936,15.625000
922.000000,-0.005245,0.009864,42.875790,15.625000
923.000000,-0.007153,0.009867,42.889832,15.625000
924.000000,-0.010281,0.009887,42.907009,15.625000
925.000000,-0.013638,0.009922,42.902721,15.625000
926.000000,-0.011501,0.010003,42.898392,15.625000
927.000000,-0.012341,0.010043,42.926929,15.625000
928.000000,-0.012417,0.010099,42.957989,15.625000
929.000000,-0.012799,0.010121,42.990124,15.625000
930.000000,-0.016690,0.010147,42.965248,15.625000
931.000000,-0.011807,0.010234,42.890175,15.625000
932.000000,-0.011196,0.010262,42.792034,15.625000
933.000000,-0.010128,0.010286,42.679832,15.625000
934.000000,-0.010128,0.010290,42.579319,15.625000
935.000000,-0.005550,0.010292,42.494793,15.625000
936.000000,-0.003033,0.010247,42.420494,15.625000
937.000000,-0.006771,0.010192,42.348286,15.625000
938.000000,-0.013561,0.010129,42.266567,15.625000
939.000000,-0.021115,0.010143,42.179539,15.625000
940.000000,-0.017071,0.010307,42.094398,15.625000
941.000000,-0.014096,0.010365,42.008175,15.625000
942.000000,-0.005398,0.010393,41.916771,15.625000
943.000000,0.000324,0.010338,41.820564,15.625000
944.000000,0.004063,0.010256,41.715813,15.625000
945.000000,0.005283,0.010150,41.609455,15.625000
946.000000,-0.000362,0.010100,41.507877,15.625000
947.000000,-0.002193,0.010072,41.411480,15.625000
948.000000,-0.009060,0.010049,41.316162,11.718750
949.000000,-0.012112,0.010049,41.218254,11.718750
950.000000,-0.007534,0.010047,41.126247,11.718750
951.000000,-0.004711,0.010018,41.030884,11.718750
952.000000,-0.008145,0.009961,40.929569,11.718750
953.000000,-0.011196,0.009943,40.827717,11.718750
954.000000,-0.010281,0.009941,40.720821,11.718750
955.000000,-0.008907,0.009941,40.613331,11.718750
956.000000,-0.002880,0.009938,40.509361,11.718750
957.000000,-0.006085,0.009931,40.406662,11.718750
958.000000,-0.011883,0.009921,40.305714,11.718750
959.000000,-0.013485,0.009961,40.212955,11.718750
960.000000,-0.014324,0.010020,40.127785,11.718750
961.000000,-0.015469,0.010077,40.044548,11.718750
962.000000,-0.015927,0.010170,39.965294,11.718750
963.000000,-0.014782,0.010259,39.889507,11.718750
964.000000,-0.016155,0.010340,39.817104,11.718750
965.000000,-0.014096,0.010432,39.749065,11.718750
966.000000,-0.017300,0.010493,39.682980,11.718750
967.000000,-0.017071,0.010600,39.622978,11.718750
968.000000,-0.018063,0.010730,39.567444,11.718750
969.000000,-0.014782,0.010861,39.519100,11.718750
970.000000,-0.013027,0.010941,39.476212,11.718750
971.000000,-0.012341,0.010989,39.434299,11.718750
972.000000,-0.013867,0.011020,39.395718,11.718750
973.000000,-0.009442,0.011049,39.363167,11.718750
974.000000,-0.005703,0.011036,39.336781,11.718750
975.000000,-0.002270,0.011014,39.319607,11.718750
976.000000,0.000019,0.010984,39.301624,11.718750
977.000000,-0.004635,0.010970,39.325089,11.718750
978.000000,-0.009594,0.010951,39.335815,11.718750
979.000000,-0.012417,0.010952,39.326374,11.718750
980.000000,-0.014096,0.010985,39.311043,11.718750
981.000000,-0.007916,0.010974,39.296921,11.718750
982.000000,-0.007076,0.010884,39.309402,11.718750
983.000000,-0.000820,0.010839,39.333141,11.718750
984.000000,0.006199,0.010737,39.360573,11.718750
985.000000,0.008869,0.010676,39.404312,11.718750
986.000000,0.007649,0.010653,39.443886,11.718750
987.000000,0.001392,0.010635,39.493778,11.718750
988.000000,-0.008068,0.010617,39.534595,11.718750
989.000000,-0.013256,0.010647,39.562862,11.718750
990.000000,-0.015240,0.010727,39.589882,11.718750
991.000000,-0.011654,0.010818,39.625504,11.718750
992.000000,-0.013256,0.010817,39.660973,11.718750
993.000000,-0.008755,0.010780,39.724728,11.718750
994.000000,-0.006847,0.010710,39.819164,11.718750
995.000000,-0.007382,0.010662,39.922604,11.718750
996.000000,-0.011196,0.010656,40.027248,11.718750
997.000000,-0.011501,0.010711,40.130760,11.718750
998.000000,-0.011120,0.010772,40.228329,11.718750
999.000000,-0.013027,0.010825,40.311775,11.718750
1000.000000,-0.015736,0.010903,40.400349,11.718750
1001.000000,-0.020771,0.011012,40.500629,11.718750
1002.000000,-0.021153,0.011167,40.607853,11.718750
1003.000000,-0.016880,0.011256,40.726513,11.718750
1004.000000,-0.014439,0.011290,40.842911,11.718750
1005.000000,-0.012760,0.011312,40.975925,11.718750
1006.000000,-0.012226,0.011341,41.109531,11.718750
1007.000000,-0.011769,0.011377,41.239986,11.718750
1008.000000,-0.010395,0.011421,41.361423,11.718750
1009.000000,-0.011616,0.011445,41.482323,11.718750
1010.000000,-0.014210,0.011442,41.578274,11.718750
1011.000000,-0.009556,0.011473,41.682629,11.718750
1012.000000,-0.008412,0.011456,41.796257,11.718750
1013.000000,-0.007115,0.011452,41.918545,11.718750
1014.000000,-0.007954,0.011452,42.045670,11.718750
1015.000000,-0.007267,0.011421,42.197422,11.718750
1016.000000,-0.007496,0.011381,42.370468,11.718750
1017.000000,-0.006428,0.011331,42.551395,11.718750
1018.000000,-0.006428,0.011277,42.705479,11.718750
1019.000000,-0.006657,0.011238,42.862221,11.718750
1020.000000,-0.004673,0.011224,42.995167,11.718750
1021.000000,-0.004368,0.011213,43.109779,15.625000
1022.000000,-0.004597,0.011203,43.214119,15.625000
1023.000000,-0.006504,0.011200,43.338924,15.625000
1024.000000,-0.008946,0.011196,43.463905,15.625000
1025.000000,-0.010472,0.011185,43.594738,15.625000
1026.000000,-0.006123,0.011151,43.735802,15.625000
1027.000000,-0.002766,0.011108,43.872383,15.625000
1028.000000,-0.003986,0.011043,44.013672,15.625000
1029.000000,-0.007038,0.010980,44.099419,15.625000
1030.000000,-0.008106,0.010928,44.148232,15.625000
1031.000000,-0.007343,0.010830,44.176636,15.625000
1032.000000,-0.008335,0.010790,44.224697,15.625000
1033.000000,-0.006428,0.010765,44.277180,15.625000
1034.000000,-0.009174,0.010736,44.369114,15.625000
1035.000000,-0.008412,0.010727,44.453030,15.625000
1036.000000,-0.010472,0.010746,44.496410,15.625000
1037.000000,-0.007115,0.010793,44.523666,15.625000
1038.000000,-0.008183,0.010795,44.545265,15.625000
1039.000000,-0.008717,0.010741,44.538246,15.625000
1040.000000,-0.009937,0.010567,44.504856,15.625000
1041.000000,-0.009174,0.010475,44.490288,15.625000
1042.000000,-0.009785,0.010421,44.536961,15.625000
1043.000000,-0.011540,0.010453,44.614929,19.531250
1044.000000,-0.009251,0.010516,44.696194,19.531250
1045.000000,-0.007725,0.010549,44.750183,19.531250
1046.000000,-0.008106,0.010564,44.792286,19.531250
1047.000000,-0.009174,0.010595,44.842796,19.531250
1048.000000,-0.009785,0.010632,44.854420,19.531250
1049.000000,-0.010243,0.010639,44.860237,19.531250
1050.000000,-0.010548,0.010619,44.875858,19.531250
1051.000000,-0.009861,0.010645,44.882286,19.531250
1052.000000,-0.012913,0.010680,44.891773,19.531250
1053.000000,-0.010166,0.010727,44.879345,19.531250
1054.000000,-0.011311,0.010716,44.868019,19.531250
1055.000000,-0.012455,0.010727,44.890686,19.531250
1056.000000,-0.008717,0.010762,44.916714,19.531250
1057.000000,-0.007343,0.010793,44.944218,19.531250
1058.000000,-0.008259,0.010801,44.914013,19.531250
1059.000000,-0.007877,0.010767,44.833359,15.625000
1060.000000,-0.012379,0.010712,44.729790,15.625000
1061.000000,-0.010777,0.010687,44.612495,15.625000
1062.000000,-0.011845,0.010630,44.507648,15.625000
1063.000000,-0.014363,0.010576,44.419521,15.625000
1064.000000,-0.013371,0.010570,44.342541,15.625000
1065.000000,-0.009022,0.010531,44.267998,15.625000
1066.000000,-0.009556,0.010476,44.182980,15.625000
1067.000000,-0.008946,0.010376,44.091915,15.625000
1068.000000,-0.009556,0.010274,44.004639,15.625000
1069.000000,-0.010243,0.010159,43.918671,15.625000
1070.000000,-0.008412,0.010102,43.828384,15.625000
1071.000000,-0.005512,0.010053,43.733921,15.625000
1072.000000,-0.008793,0.009993,43.631081,15.625000
1073.000000,-0.013371,0.009935,43.527088,15.625000
1074.000000,-0.014210,0.009980,43.427895,15.625000
1075.000000,-0.013676,0.010064,43.334194,15.625000
1076.000000,-0.013752,0.010154,43.241890,15.625000
1077.000000,-0.011845,0.010247,43.147221,15.625000
1078.000000,-0.010166,0.010305,43.059010,15.625000
1079.000000,-0.008564,0.010310,42.968124,15.625000
1080.000000,-0.007343,0.010271,42.872150,15.625000
1081.000000,-0.003147,0.010200,42.775902,15.625000
1082.000000,-0.000324,0.010174,42.673798,15.625000
1083.000000,-0.000782,0.010150,42.570099,15.625000
1084.000000,-0.006352,0.010150,42.470615,15.625000
1085.000000,-0.013981,0.010151,42.374161,15.625000
1086.000000,-0.012989,0.010208,42.280933,15.625000
1087.000000,-0.011692,0.010262,42.196533,15.625000
1088.000000,-0.010700,0.010327,42.120167,15.625000
1089.000000,-0.009251,0.010351,42.046246,15.625000
1090.000000,-0.001392,0.010308,41.976715,15.625000
1091.000000,0.005322,0.010195,41.910458,15.625000
1092.000000,0.004559,0.010143,41.848240,15.625000
1093.000000,0.006313,0.010066,41.790977,11.718750
1094.000000,-0.001392,0.010048,41.736210,11.718750
1095.000000,-0.009327,0.010025,41.688076,11.718750
1096.000000,-0.012074,0.010041,41.645241,11.718750
1097.000000,-0.009556,0.010052,41.610447,11.718750
1098.000000,-0.012226,0.010031,41.581482,11.718750
1099.000000,-0.010166,0.010044,41.553265,11.718750
1100.000000,-0.009518,0.010011,41.528587,11.718750
1101.000000,-0.007305,0.009932,41.510288,11.718750
1102.000000,-0.007992,0.009740,41.498306,11.718750
1103.000000,-0.007382,0.009541,41.495800,11.718750
1104.000000,-0.007382,0.009419,41.492657,11.718750
1105.000000,-0.009670,0.009337,41.531952,11.718750
1106.000000,-0.011501,0.009300,41.558453,11.718750
1107.000000,-0.012493,0.009291,41.564476,11.718750
1108.000000,-0.018826,0.009300,41.564632,11.718750
1109.000000,-0.016155,0.009432,41.566055,11.718750
1110.000000,-0.014401,0.009498,41.594681,11.718750
1111.000000,-0.015164,0.009501,41.634941,11.718750
1112.000000,-0.012646,0.009574,41.679001,11.718750
1113.000000,-0.013027,0.009620,41.739948,11.718750
1114.000000,-0.013867,0.009682,41.796600,11.718750
1115.000000,-0.013790,0.009749,41.863785,11.718750
1116.000000,-0.010204,0.009819,41.922207,11.718750
1117.000000,-0.007763,0.009843,41.968132,11.718750
1118.000000,-0.007305,0.009853,42.012486,11.718750
1119.000000,-0.005245,0.009859,42.065536,11.718750
1120.000000,-0.008907,0.009850,42.118191,11.718750
1121.000000,-0.009747,0.009880,42.199337,11.718750
1122.000000,-0.009289,0.009918,42.311279,11.718750
1123.000000,-0.011273,0.009951,42.431938,11.718750
1124.000000,-0.009670,0.009993,42.554253,11.718750
1125.000000,-0.008297,0.010000,42.675644,11.718750
1126.000000,-0.008297,0.009979,42.790730,11.718750
1127.000000,-0.007153,0.009995,42.890991,15.625000
1128.000000,-0.004635,0.010017,42.995899,15.625000
1129.000000,-0.005550,0.010020,43.112183,15.625000
1130.000000,-0.005016,0.010010,43.235191,15.625000
1131.000000,-0.006542,0.009990,43.369469,15.625000
1132.000000,-0.009060,0.009985,43.501022,15.625000
1133.000000,-0.011501,0.009991,43.648804,15.625000
1134.000000,-0.010281,0.010036,43.796654,15.625000
1135.000000,-0.009365,0.010047,43.940727,15.625000
1136.000000,-0.010052,0.010055,44.075085,15.625000
1137.000000,-0.008831,0.010051,44.208260,15.625000
1138.000000,-0.008221,0.010065,44.315586,15.625000
1139.000000,-0.004559,0.010065,44.430779,15.625000
1140.000000,-0.004864,0.010038,44.554642,15.625000
1141.000000,-0.011501,0.010000,44.686447,19.531250
1142.000000,-0.013180,0.010024,44.822083,19.531250
1143.000000,-0.008450,0.010063,44.981415,19.531250
1144.000000,-0.010586,0.010032,45.161358,19.531250
1145.000000,-0.009594,0.010045,45.348541,19.531250
1146.000000,-0.008068,0.010062,45.507706,19.531250
1147.000000,-0.005932,0.010061,45.668724,19.531250
1148.000000,-0.005856,0.010037,45.804775,19.531250
1149.000000,-0.006924,0.010006,45.921577,19.531250
1150.000000,-0.008221,0.009978,46.026913,19.531250
1151.000000,-0.011044,0.009956,46.151493,19.531250
1152.000000,-0.011883,0.009968,46.275658,19.531250
1153.000000,-0.009594,0.009955,46.404900,19.531250
1154.000000,-0.010204,0.009950,46.543980,19.531250
1155.000000,-0.010891,0.009938,46.677227,19.531250
1156.000000,-0.011578,0.009919,46.813519,19.531250
1157.000000,-0.009670,0.009949,46.893539,19.531250
1158.000000,-0.009899,0.009968,46.935932,19.531250
1159.000000,-0.008602,0.009983,46.957069,19.531250
1160.000000,-0.005932,0.009989,46.996613,19.531250
1161.000000,-0.007000,0.009930,47.039650,19.531250
1162.000000,-0.009518,0.009896,47.120762,19.531250
1163.000000,-0.016003,0.009871,47.193024,19.531250
1164.000000,-0.019131,0.009896,47.224190,19.531250
1165.000000,-0.018826,0.009990,47.238472,19.531250
1166.000000,-0.016003,0.010126,47.246376,19.531250
1167.000000,-0.013714,0.010207,47.225189,19.531250
1168.000000,-0.011807,0.010260,47.177189,19.531250
1169.000000,-0.008679,0.010283,47.146893,19.531250
1170.000000,-0.006847,0.010269,47.176033,19.531250
1171.000000,-0.002880,0.010257,47.235111,19.531250
1172.000000,-0.004788,0.010247,47.295998,19.531250
1173.000000,-0.003567,0.010220,47.328594,19.531250
1174.000000,-0.006085,0.010138,47.347450,19.531250
1175.000000,-0.007000,0.010057,47.374474,19.531250
1176.000000,-0.012799,0.009988,47.364502,19.531250
1177.000000,-0.018673,0.009975,47.348244,19.531250
1178.000000,-0.014401,0.010079,47.340725,19.531250
1179.000000,-0.007610,0.010131,47.324200,19.531250
1180.000000,0.000324,0.010123,47.309505,19.531250
1181.000000,0.005894,0.010096,47.272217,19.531250
1182.000000,0.010014,0.010109,47.235874,19.531250
1183.000000,0.006123,0.010158,47.233425,19.531250
1184.000000,-0.000668,0.010176,47.233822,19.531250
1185.000000,-0.008373,0.010157,47.234882,19.531250
1186.000000,-0.012799,0.010095,47.179008,19.531250
1187.000000,-0.013867,0.010092,47.074352,19.531250
1188.000000,-0.011425,0.010120,46.947075,19.531250
1189.000000,-0.007763,0.010128,46.807735,19.531250
1190.000000,-0.008450,0.010115,46.679451,19.531250
1191.000000,-0.010052,0.010149,46.567204,19.531250
1192.000000,-0.008984,0.010185,46.465939,19.531250
1193.000000,-0.009518,0.010215,46.367100,19.531250
1194.000000,-0.009823,0.010239,46.257515,19.531250
1195.000000,-0.012799,0.010285,46.141930,19.531250
1196.000000,-0.012875,0.010323,46.029938,19.531250
1197.000000,-0.012188,0.010332,45.918957,19.531250
1198.000000,-0.013027,0.010360,45.803822,19.531250
1199.000000,-0.014248,0.010370,45.684639,19.531250
1200.000000,-0.017491,0.010418,45.557339,19.531250
1201.000000,-0.015736,0.010521,45.429199,19.531250
1202.000000,-0.013142,0.010613,45.306004,19.531250
1203.000000,-0.013600,0.010664,45.188404,19.531250
1204.000000,-0.012303,0.010725,45.072544,19.531250
1205.000000,-0.009174,0.010770,44.954460,19.531250
1206.000000,-0.006352,0.010765,44.843025,19.531250
1207.000000,-0.008488,0.010723,44.729298,19.531250
1208.000000,-0.005436,0.010683,44.610928,19.531250
1209.000000,-0.003071,0.010530,44.492664,15.625000
1210.000000,-0.004749,0.010410,44.368961,15.625000
1211.000000,-0.004444,0.010321,44.244080,15.625000
1212.000000,-0.005970,0.010219,44.123829,15.625000
1213.000000,-0.006962,0.010158,44.007126,15.625000
1214.000000,-0.008946,0.010098,43.894028,15.625000
1215.000000,-0.004826,0.010042,43.790096,15.625000
1216.000000,-0.004597,0.009959,43.694607,15.625000
1217.000000,-0.004597,0.009917,43.602062,15.625000
1218.000000,-0.004978,0.009897,43.514328,15.625000
1219.000000,-0.005665,0.009883,43.430393,15.625000
1220.000000,-0.006657,0.009885,43.350754,15.625000
1221.000000,-0.006657,0.009867,43.276550,15.625000
1222.000000,-0.006809,0.009841,43.205883,15.625000
1223.000000,-0.008183,0.009821,43.142551,15.625000
1224.000000,-0.010777,0.009790,43.084988,15.625000
1225.000000,-0.012150,0.009802,43.036240,15.625000
1226.000000,-0.012303,0.009842,42.993591,15.625000
1227.000000,-0.012455,0.009884,42.952263,15.625000
1228.000000,-0.008946,0.009936,42.915154,15.625000
1229.000000,-0.009098,0.009966,42.884911,15.625000
1230.000000,-0.012837,0.009992,42.861492,15.625000
1231.000000,-0.011769,0.010061,42.848236,15.625000
1232.000000,-0.011845,0.010109,42.835281,15.625000
1233.000000,-0.011921,0.010138,42.865250,15.625000
1234.000000,-0.013066,0.010143,42.882957,15.625000
1235.000000,-0.012989,0.010175,42.880562,15.625000
1236.000000,-0.010548,0.010214,42.872746,15.625000
1237.000000,-0.011845,0.010219,42.866756,15.625000
1238.000000,-0.012074,0.010250,42.889164,15.625000
1239.000000,-0.013828,0.010288,42.924366,15.625000
1240.000000,-0.008564,0.010370,42.963974,15.625000
1241.000000,-0.007115,0.010394,43.021057,15.625000
1242.000000,-0.011921,0.010355,43.074253,15.625000
1243.000000,-0.011921,0.010340,43.138351,15.625000
1244.000000,-0.014134,0.010374,43.193707,15.625000
1245.000000,-0.014820,0.010416,43.236748,15.625000
1246.000000,-0.012531,0.010477,43.279144,15.625000
1247.000000,-0.009556,0.010521,43.331009,15.625000
1248.000000,-0.010624,0.010547,43.383347,15.625000
1249.000000,-0.010929,0.010585,43.464546,15.625000
1250.000000,-0.008183,0.010618,43.577221,15.625000
1251.000000,-0.005131,0.010618,43.700169,15.625000
1252.000000,-0.005512,0.010573,43.825920,15.625000
1253.000000,-0.007420,0.010520,43.951000,15.625000
1254.000000,-0.011158,0.010503,44.070286,15.625000
1255.000000,-0.014744,0.010512,44.174751,15.625000
1256.000000,-0.013523,0.010559,44.283924,15.625000
1257.000000,-0.002766,0.010582,44.404137,15.625000
1258.000000,0.000515,0.010542,44.530521,15.625000
1259.000000,0.005016,0.010495,44.668617,15.625000
1260.000000,0.002422,0.010472,44.805672,15.625000
1261.000000,0.003033,0.010458,44.961014,19.531250
1262.000000,-0.005970,0.010439,45.117481,19.531250
1263.000000,-0.015507,0.010413,45.269665,19.531250
1264.000000,-0.013066,0.010405,45.411304,19.531250
1265.000000,-0.005360,0.010311,45.551426,19.531250
1266.000000,0.003033,0.010152,45.666012,19.531250
1267.000000,0.006085,0.010029,45.788612,19.531250
1268.000000,0.003719,0.009954,45.920300,19.531250
1269.000000,-0.004444,0.009890,46.059944,19.531250
1270.000000,-0.010548,0.009862,46.203384,19.531250
1271.000000,-0.011540,0.009895,46.370552,19.531250
1272.000000,-0.012913,0.009958,46.558620,19.531250
1273.000000,-0.010548,0.010030,46.753906,19.531250
1274.000000,-0.013218,0.010079,46.921116,19.531250
1275.000000,-0.011616,0.010147,47.090012,19.531250
1276.000000,-0.010624,0.010189,47.233742,19.531250
1277.000000,-0.012455,0.010164,47.358330,19.531250
1278.000000,-0.015507,0.010068,47.471516,19.531250
1279.000000,-0.012074,0.010085,47.604343,19.531250
1280.000000,-0.013676,0.010128,47.736561,19.531250
1281.000000,-0.013981,0.010220,47.872726,19.531250
1282.000000,-0.014820,0.010299,48.017216,19.531250
1283.000000,-0.016117,0.010356,48.155811,19.531250
1284.000000,-0.014057,0.010463,48.297012,19.531250
1285.000000,-0.013600,0.010557,48.383396,19.531250
1286.000000,-0.013600,0.010611,48.433388,19.531250
1287.000000,-0.010777,0.010621,48.461662,19.531250
1288.000000,-0.011158,0.010585,48.507050,19.531250
1289.000000,-0.010319,0.010582,48.556980,19.531250
1290.000000,-0.009403,0.010604,48.645519,19.531250
1291.000000,-0.008640,0.010612,48.724403,19.531250
1292.000000,-0.010243,0.010600,48.761906,19.531250
1293.000000,-0.009480,0.010611,48.781235,19.531250
1294.000000,-0.006352,0.010611,48.794281,19.531250
1295.000000,-0.006733,0.010584,48.778698,23.437500
1296.000000,-0.007115,0.010528,48.736862,19.531250
1297.000000,-0.006352,0.010473,48.712215,19.531250
1298.000000,-0.009327,0.010422,48.746193,23.437500
1299.000000,-0.008869,0.010382,48.809296,23.437500
1300.000000,-0.008717,0.010322,48.873558,23.437500
1301.000000,-0.010014,0.010210,48.909126,23.437500
1302.000000,-0.008030,0.010137,48.930603,23.437500
1303.000000,-0.008793,0.010084,48.959476,23.437500
1304.000000,-0.008488,0.010030,48.951153,23.437500
1305.000000,-0.009480,0.009991,48.936306,23.437500
1306.000000,-0.009174,0.009994,48.930492,23.437500
1307.000000,-0.008717,0.010015,48.915768,23.437500
1308.000000,-0.010395,0.010017,48.902767,23.437500
1309.000000,-0.011616,0.010057,48.866234,23.437500
1310.000000,-0.012455,0.010119,48.831169,23.437500
1311.000000,-0.009251,0.010184,48.830826,23.437500
1312.000000,-0.009403,0.010216,48.833275,23.437500
1313.000000,-0.005741,0.010242,48.836170,23.437500
1314.000000,-0.008106,0.010235,48.781578,23.437500
1315.000000,-0.011921,0.010228,48.677948,23.437500
1316.000000,-0.012379,0.010285,48.551464,23.437500
1317.000000,-0.009556,0.010349,48.412563,19.531250
1318.000000,-0.006046,0.010383,48.284988,19.531250
1319.000000,-0.007801,0.010389,48.173248,19.531250
1320.000000,-0.012303,0.010403,48.072407,19.531250
1321.000000,-0.006199,0.010454,47.973358,19.531250
1322.000000,-0.002613,0.010451,47.862831,19.531250
1323.000000,-0.008717,0.010432,47.745117,19.531250
1324.000000,-0.007420,0.010437,47.630997,19.531250
1325.000000,-0.003452,0.010407,47.518761,19.531250
1326.000000,-0.005283,0.010342,47.403114,19.531250
1327.000000,-0.007954,0.010282,47.284172,19.531250
1328.000000,-0.009098,0.010237,47.156975,19.531250
1329.000000,-0.006428,0.010239,47.028984,19.531250
1330.000000,-0.008412,0.010218,46.905125,19.531250
1331.000000,-0.004215,0.010172,46.786980,19.531250
1332.000000,-0.004826,0.010113,46.671158,19.531250
1333.000000,-0.005512,0.010055,46.553589,19.531250
1334.000000,-0.005055,0.009999,46.442383,19.531250
1335.000000,-0.010777,0.009926,46.328350,19.531250
1336.000000,-0.009327,0.009900,46.209499,19.531250
1337.000000,-0.010319,0.009887,46.091312,19.531250
1338.000000,-0.011387,0.009870,45.969326,19.531250
1339.000000,-0.008717,0.009862,45.845509,19.531250
1340.000000,-0.012074,0.009804,45.725212,19.531250
1341.000000,-0.010472,0.009840,45.607731,19.531250
1342.000000,-0.009937,0.009870,45.493359,19.531250
1343.000000,-0.008106,0.009848,45.388863,19.531250
1344.000000,-0.010929,0.009810,45.293964,19.531250
1345.000000,-0.016194,0.009769,45.201931,19.531250
1346.000000,-0.012989,0.009790,45.113846,19.531250
1347.000000,-0.013523,0.009796,45.028027,19.531250
1348.000000,-0.011997,0.009843,44.946228,19.531250
1349.000000,-0.009785,0.009859,44.870174,19.531250
1350.000000,-0.009403,0.009847,44.799595,19.531250
1351.000000,-0.008640,0.009858,44.737549,15.625000
1352.000000,-0.009861,0.009882,44.681660,15.625000
1353.000000,-0.014134,0.009916,44.634811,15.625000
1354.000000,-0.011387,0.009989,44.593830,15.625000
1355.000000,-0.012074,0.009991,44.554630,15.625000
1356.000000,-0.012074,0.009955,44.519337,15.625000
1357.000000,-0.011997,0.009937,44.491047,15.625000
1358.000000,-0.012608,0.010005,44.469807,15.625000
1359.000000,-0.011311,0.010084,44.458889,15.625000
1360.000000,-0.009480,0.010135,44.447697,15.625000
1361.000000,-0.007420,0.010176,44.479324,15.625000
1362.000000,-0.001011,0.010199,44.498627,15.625000
1363.000000,0.000134,0.010182,44.498081,15.625000
1364.000000,-0.003529,0.010063,44.492039,15.625000
1365.000000,-0.003452,0.009984,44.487549,15.625000
1366.000000,-0.010929,0.009975,44.511391,15.625000
1367.000000,-0.016575,0.010031,44.548023,15.625000
1368.000000,-0.020085,0.010148,44.589153,15.625000
1369.000000,-0.016957,0.010339,44.647797,15.625000
1370.000000,-0.004826,0.010467,44.702496,15.625000
1371.000000,0.004025,0.010425,44.768375,15.625000
1372.000000,0.002575,0.010369,44.825562,15.625000
1373.000000,0.002499,0.010291,44.870541,19.531250
1374.000000,0.000668,0.010240,44.914715,19.531250
1375.000000,-0.007649,0.010155,44.968712,19.531250
1376.000000,-0.013371,0.010117,45.023232,19.531250
1377.000000,-0.017338,0.010150,45.106617,19.531250
1378.000000,-0.016957,0.010221,45.221382,19.531250
1379.000000,-0.013447,0.010244,45.346214,19.531250
1380.000000,-0.010014,0.010261,45.473984,19.531250
1381.000000,-0.011006,0.010219,45.600933,19.531250
1382.000000,-0.011769,0.010182,45.721912,19.531250
1383.000000,-0.008640,0.010142,45.828300,19.531250
1384.000000,-0.008335,0.010051,45.939388,19.531250
1385.000000,-0.009098,0.009987,46.061497,19.531250
1386.000000,-0.010319,0.009935,46.189682,19.531250
1387.000000,-0.011311,0.009896,46.329514,19.531250
1388.000000,-0.016575,0.009902,46.468258,19.531250
1389.000000,-0.018635,0.009977,46.625210,19.531250
1390.000000,-0.012531,0.010097,46.782970,19.531250
1391.000000,-0.010548,0.010131,46.936436,19.531250
1392.000000,-0.011616,0.010149,47.079689,19.531250
1393.000000,-0.012455,0.010164,47.221127,19.531250
1394.000000,-0.008412,0.010196,47.337368,19.531250
1395.000000,-0.004520,0.010211,47.461422,19.531250
1396.000000,-0.003300,0.010199,47.594124,19.531250
1397.000000,-0.004826,0.010179,47.734932,19.531250
1398.000000,-0.005360,0.010171,47.879513,19.531250
1399.000000,-0.008488,0.010142,48.047806,19.531250
1400.000000,-0.009365,0.010139,48.236622,19.531250
1401.000000,-0.007763,0.010145,48.432148,19.531250
1402.000000,-0.005932,0.010125,48.599911,19.531250
1403.000000,-0.001431,0.010111,48.769333,23.437500
1404.000000,-0.001354,0.010073,48.913639,23.437500
1405.000000,-0.006847,0.010038,49.039017,23.437500
1406.000000,-0.007000,0.010017,49.153076,23.437500
1407.000000,-0.007839,0.009999,49.286366,23.437500
1408.000000,-0.007076,0.009992,49.419010,23.437500
1409.000000,-0.004864,0.009963,49.555443,23.437500
1410.000000,-0.007534,0.009907,49.699886,23.437500
1411.000000,-0.011730,0.009857,49.838337,23.437500
1412.000000,-0.010281,0.009884,49.978928,23.437500
1413.000000,-0.009594,0.009892,50.065266,23.437500
1414.000000,-0.010815,0.009922,50.115799,23.437500
1415.000000,-0.007916,0.009948,50.144939,23.437500
1416.000000,-0.008145,0.009908,50.191761,23.437500
1417.000000,-0.008907,0.009864,50.242947,23.437500
1418.000000,-0.011044,0.009858,50.332581,23.437500
1419.000000,-0.012036,0.009901,50.412785,23.437500
1420.000000,-0.010433,0.009944,50.451744,23.437500
1421.000000,-0.009518,0.009922,50.472530,23.437500
1422.000000,-0.010510,0.009948,50.486759,23.437500
1423.000000,-0.009747,0.010000,50.472740,23.437500
1424.000000,-0.009518,0.010010,50.432755,23.437500
1425.000000,-0.010052,0.010028,50.409801,23.437500
1426.000000,-0.007687,0.010072,50.444778,23.437500
1427.000000,-0.007610,0.010087,50.508259,23.437500
1428.000000,-0.008602,0.010085,50.572144,23.437500
1429.000000,-0.010967,0.010080,50.606918,23.437500
1430.000000,-0.009899,0.010119,50.627045,23.437500
1431.000000,-0.009136,0.010133,50.655098,23.437500
1432.000000,-0.011120,0.010165,50.647854,23.437500
1433.000000,-0.008755,0.010215,50.634350,23.437500
1434.000000,-0.006695,0.010237,50.628551,23.437500
1435.000000,-0.004864,0.010247,50.614792,23.437500
1436.000000,-0.010510,0.010201,50.602177,23.437500
1437.000000,-0.011425,0.010213,50.566177,23.437500
1438.000000,-0.011044,0.010225,50.531105,23.437500
1439.000000,-0.012951,0.010221,50.530102,23.437500
1440.000000,-0.009899,0.010266,50.531849,23.437500
1441.000000,-0.010128,0.010242,50.534313,23.437500
1442.000000,-0.010128,0.010239,50.480938,23.437500
1443.000000,-0.010967,0.010241,50.380573,23.437500
1444.000000,-0.011501,0.010267,50.257435,23.437500
1445.000000,-0.010586,0.010274,50.121590,23.437500
1446.000000,-0.011883,0.010200,49.995880,23.437500
1447.000000,-0.013333,0.010187,49.884907,23.437500
1448.000000,-0.010204,0.010184,49.784328,23.437500
1449.000000,-0.012417,0.010165,49.685051,23.437500
1450.000000,-0.012875,0.010193,49.574364,23.437500
1451.000000,-0.009136,0.010231,49.457142,23.437500
1452.000000,-0.012036,0.010236,49.343071,23.437500
1453.000000,-0.016537,0.010259,49.230030,23.437500
1454.000000,-0.014858,0.010295,49.113155,23.437500
1455.000000,-0.015164,0.010339,48.992760,23.437500
1456.000000,-0.011959,0.010379,48.864872,23.437500
1457.000000,-0.013409,0.010378,48.736164,23.437500
1458.000000,-0.014630,0.010395,48.611515,19.531250
1459.000000,-0.010815,0.010422,48.492226,19.531250
1460.000000,-0.006085,0.010417,48.374771,19.531250
1461.000000,-0.001049,0.010391,48.255322,19.531250
1462.000000,-0.001583,0.010365,48.142113,19.531250
1463.000000,-0.002422,0.010366,48.025944,19.531250
1464.000000,-0.009060,0.010369,47.904770,19.531250
1465.000000,-0.009976,0.010402,47.784130,19.531250
1466.000000,-0.013409,0.010444,47.659534,19.531250
1467.000000,-0.011807,0.010473,47.532928,19.531250
1468.000000,-0.012570,0.010408,47.409660,19.531250
1469.000000,-0.002575,0.010290,47.288937,19.531250
1470.000000,0.003758,0.010152,47.171101,19.531250
1471.000000,0.007496,0.010148,47.063221,19.531250
1472.000000,0.008106,0.010167,46.964882,19.531250
1473.000000,0.004520,0.010196,46.869316,19.531250
1474.000000,-0.002270,0.010203,46.777481,19.531250
1475.000000,-0.011807,0.010206,46.688091,19.531250
1476.000000,-0.016842,0.010245,46.602688,19.531250
1477.000000,-0.013561,0.010296,46.523098,19.531250
1478.000000,-0.010281,0.010240,46.449223,19.531250
1479.000000,-0.008907,0.010150,46.383797,19.531250
1480.000000,-0.012188,0.010100,46.324245,19.531250
1481.000000,-0.011273,0.010124,46.273796,19.531250
1482.000000,-0.009213,0.010127,46.229267,19.531250
1483.000000,-0.011273,0.010101,46.186562,19.531250
1484.000000,-0.012951,0.010126,46.147823,19.531250
1485.000000,-0.017300,0.010175,46.116123,19.531250
1486.000000,-0.015469,0.010281,46.091583,19.531250
1487.000000,-0.013714,0.010345,46.077477,19.531250
1488.000000,-0.012493,0.010374,46.063160,19.531250
1489.000000,-0.010204,0.010317,46.091797,19.531250
1490.000000,-0.010052,0.010198,46.108166,19.531250
1491.000000,-0.015164,0.010171,46.104832,19.531250
1492.000000,-0.019970,0.010229,46.096313,19.531250
1493.000000,-0.019512,0.010357,46.089409,19.531250
1494.000000,-0.014706,0.010465,46.111172,19.531250
1495.000000,-0.008221,0.010535,46.146019,19.531250
1496.000000,-0.000362,0.010557,46.185505,19.531250
1497.000000,0.000172,0.010552,46.242935,19.531250
1498.000000,0.000401,0.010541,46.296619,19.531250
1499.000000,-0.001659,0.010527,46.361748,19.531250
1500.000000,-0.002270,0.010494,46.418129,19.531250
1501.000000,-0.005322,0.010455,46.462143,19.531250
1502.000000,-0.009213,0.010440,46.505363,19.531250
1503.000000,-0.009899,0.010464,46.558949,19.531250
1504.000000,-0.007229,0.010509,46.613453,19.531250
1505.000000,-0.008068,0.010533,46.697407,19.531250
1506.000000,-0.009289,0.010542,46.813637,19.531250
1507.000000,-0.008831,0.010560,46.940228,19.531250
1508.000000,-0.005322,0.010567,47.070564,19.531250
1509.000000,-0.004482,0.010557,47.200264,19.531250
1510.000000,-0.005779,0.010555,47.324631,19.531250
1511.000000,-0.010967,0.010544,47.434280,19.531250
1512.000000,-0.012417,0.010536,47.548824,19.531250
1513.000000,-0.014324,0.010559,47.674450,19.531250
1514.000000,-0.014248,0.010613,47.805676,19.531250
1515.000000,-0.010891,0.010653,47.948963,19.531250
1516.000000,-0.013027,0.010679,48.092068,19.531250
1517.000000,-0.012264,0.010728,48.255573,19.531250
1518.000000,-0.013943,0.010761,48.420506,19.531250
1519.000000,-0.014630,0.010794,48.580833,19.531250
1520.000000,-0.013333,0.010826,48.730202,19.531250
1521.000000,-0.012493,0.010858,48.877785,19.531250
1522.000000,-0.010967,0.010888,49.000668,19.531250
1523.000000,-0.009747,0.010893,49.131943,19.531250
1524.000000,-0.009823,0.010893,49.272198,19.531250
1525.000000,-0.007305,0.010895,49.420750,23.437500
1526.000000,-0.009213,0.010873,49.573242,23.437500
1527.000000,-0.010739,0.010885,49.749744,23.437500
1528.000000,-0.010586,0.010912,49.947063,23.437500
1529.000000,-0.008907,0.010929,50.151466,23.437500
1530.000000,-0.013104,0.010910,50.328087,23.437500
1531.000000,-0.011273,0.010944,50.506527,23.437500
1532.000000,-0.006161,0.010964,50.660500,23.437500
1533.000000,-0.006237,0.010925,50.795399,23.437500
1534.000000,-0.010281,0.010907,50.918659,23.437500
1535.000000,-0.012188,0.010935,51.061493,23.437500
1536.000000,-0.012875,0.010992,51.203846,23.437500
1537.000000,-0.015545,0.011017,51.350620,23.437500
1538.000000,-0.015011,0.011068,51.505157,23.437500
1539.000000,-0.013409,0.011114,51.653393,23.437500
1540.000000,-0.010662,0.011120,51.804073,23.437500
1541.000000,-0.009518,0.011127,51.900478,23.437500
1542.000000,-0.006542,0.011121,51.960857,23.437500
1543.000000,-0.002575,0.011095,51.999458,23.437500
1544.000000,-0.003109,0.011043,52.055595,23.437500
1545.000000,-0.004025,0.010988,52.115898,23.437500
1546.000000,-0.010739,0.010944,52.214443,23.437500
1547.000000,-0.014935,0.010932,52.303078,23.437500
1548.000000,-0.021344,0.010953,52.349998,23.437500
1549.000000,-0.016079,0.011112,52.378342,23.437500
1550.000000,-0.006619,0.011159,52.400818,23.437500
1551.000000,0.000706,0.011104,52.395115,23.437500
1552.000000,0.003376,0.011067,52.362564,23.437500
1553.000000,0.004749,0.011006,52.346272,23.437500
1554.000000,0.006428,0.010892,52.387417,23.437500
1555.000000,-0.002346,0.010809,52.456936,23.437500
1556.000000,-0.008679,0.010705,52.526890,23.437500
1557.000000,-0.011959,0.010673,52.567177,23.437500
1558.000000,-0.010891,0.010656,52.592041,23.437500
1559.000000,-0.010052,0.010611,52.624321,23.437500
1560.000000,-0.007992,0.010603,52.620770,23.437500
1561.000000,-0.008831,0.010616,52.610416,23.437500
1562.000000,-0.004559,0.010652,52.607334,23.437500
1563.000000,-0.007153,0.010661,52.595802,23.437500
1564.000000,-0.006619,0.010682,52.584835,23.437500
1565.000000,-0.003643,0.010664,52.549793,23.437500
1566.000000,-0.003719,0.010623,52.514893,23.437500
1567.000000,-0.009899,0.010545,52.513752,23.437500
1568.000000,-0.016918,0.010525,52.514839,23.437500
1569.000000,-0.016003,0.010586,52.516171,23.437500
1570.000000,-0.013104,0.010703,52.461163,23.437500
1571.000000,-0.016613,0.010777,52.358593,23.437500
1572.000000,-0.014553,0.010878,52.232376,23.437500
1573.000000,-0.013027,0.010945,52.092346,23.437500
1574.000000,-0.009747,0.011013,51.961887,23.437500
1575.000000,-0.009670,0.011054,51.846119,23.437500
1576.000000,-0.009213,0.011033,51.741119,23.437500
1577.000000,-0.013333,0.010943,51.637032,23.437500
1578.000000,-0.010052,0.010940,51.520767,23.437500
1579.000000,-0.010510,0.010938,51.397430,23.437500
1580.000000,-0.008831,0.010952,51.276405,23.437500
1581.000000,-0.011273,0.010920,51.155602,23.437500
1582.000000,-0.010815,0.010920,51.030319,23.437500
1583.000000,-0.011196,0.010934,50.901417,23.437500
1584.000000,-0.006237,0.010933,50.764893,23.437500
1585.000000,-0.007992,0.010874,50.626865,23.437500
1586.000000,-0.010128,0.010766,50.492588,23.437500
1587.000000,-0.006390,0.010702,50.363743,23.437500
1588.000000,-0.004940,0.010633,50.236668,23.437500
1589.000000,-0.004330,0.010571,50.106945,23.437500
1590.000000,-0.003185,0.010530,49.982990,23.437500
1591.000000,-0.007534,0.010487,49.855564,23.437500
1592.000000,-0.010052,0.010404,49.723026,23.437500
1593.000000,-0.007229,0.010260,49.591156,23.437500
1594.000000,-0.007687,0.010099,49.456539,23.437500
1595.000000,-0.006619,0.010021,49.319672,23.437500
1596.000000,-0.007763,0.010009,49.185581,19.531250
1597.000000,-0.011196,0.010039,49.053410,19.531250
1598.000000,-0.008602,0.010101,48.923580,19.531250
1599.000000,-0.005932,0.010137,48.803783,19.531250
1600.000000,-0.006733,0.010153,48.694126,19.531250
1601.000000,-0.009022,0.010173,48.587212,19.531250
1602.000000,-0.008946,0.010199,48.483627,19.531250
1603.000000,-0.010395,0.010197,48.381798,19.531250
1604.000000,-0.010929,0.010202,48.283428,19.531250
1605.000000,-0.013142,0.010235,48.190922,19.531250
1606.000000,-0.010929,0.010287,48.105965,19.531250
1607.000000,-0.011692,0.010303,48.030403,19.531250
1608.000000,-0.010548,0.010332,47.960835,19.531250
1609.000000,-0.009709,0.010372,47.900856,19.531250
1610.000000,-0.007877,0.010407,47.846928,19.531250
1611.000000,-0.009709,0.010421,47.794838,19.531250
1612.000000,-0.011311,0.010409,47.747028,19.531250
1613.000000,-0.010243,0.010396,47.707146,19.531250
1614.000000,-0.010014,0.010348,47.674892,19.531250
1615.000000,-0.008030,0.010298,47.653206,19.531250
1616.000000,-0.008106,0.010272,47.631012,19.531250
1617.000000,-0.008946,0.010221,47.652302,19.531250
1618.000000,-0.009632,0.010186,47.661369,19.531250
1619.000000,-0.008946,0.010136,47.651180,19.531250
1620.000000,-0.010548,0.010070,47.636436,19.531250
1621.000000,-0.009785,0.010037,47.623730,19.531250
1622.000000,-0.008946,0.010007,47.640133,19.531250
1623.000000,-0.010548,0.009987,47.670155,19.531250
1624.000000,-0.010853,0.009995,47.705105,19.531250
1625.000000,-0.010014,0.010006,47.758228,19.531250
1626.000000,-0.010472,0.010029,47.807793,19.531250
1627.000000,-0.008717,0.010041,47.869118,19.531250
1628.000000,-0.011006,0.010022,47.922024,19.531250
1629.000000,-0.013676,0.010026,47.962700,19.531250
1630.000000,-0.013294,0.010080,48.002991,19.531250
1631.000000,-0.009556,0.010082,48.054321,19.531250
1632.000000,-0.012150,0.010065,48.107265,19.531250
1633.000000,-0.014591,0.010119,48.189888,19.531250
1634.000000,-0.020085,0.010205,48.304790,19.531250
1635.000000,-0.018635,0.010349,48.429775,19.531250
1636.000000,-0.011311,0.010445,48.558971,19.531250
1637.000000,-0.007649,0.010427,48.688274,19.531250
1638.000000,-0.004368,0.010339,48.812706,19.531250
1639.000000,-0.000782,0.010238,48.922832,19.531250
1640.000000,-0.001087,0.010150,49.038010,19.531250
1641.000000,-0.002613,0.010095,49.164375,19.531250
1642.000000,-0.007115,0.010053,49.296555,19.531250
1643.000000,-0.011387,0.010057,49.440628,19.531250
1644.000000,-0.012989,0.010118,49.584984,23.437500
1645.000000,-0.015354,0.010196,49.749577,23.437500
1646.000000,-0.010243,0.010304,49.915176,23.437500
1647.000000,-0.001621,0.010299,50.076050,23.437500
1648.000000,0.003185,0.010191,50.227585,23.437500
1649.000000,0.007610,0.009970,50.378559,23.437500
1650.000000,0.006161,0.009869,50.505444,23.437500
1651.000000,0.003948,0.009866,50.640049,23.437500
1652.000000,-0.004215,0.009874,50.783615,23.437500
1653.000000,-0.010472,0.009877,50.935234,23.437500
1654.000000,-0.013523,0.009921,51.090961,23.437500
1655.000000,-0.011769,0.009992,51.270508,23.437500
1656.000000,-0.012303,0.010058,51.470505,23.437500
1657.000000,-0.014363,0.010096,51.677067,23.437500
1658.000000,-0.015736,0.010127,51.857059,23.437500
1659.000000,-0.011387,0.010191,52.038761,23.437500
1660.000000,-0.010472,0.010205,52.195938,23.437500
1661.000000,-0.007572,0.010227,52.334290,23.437500
1662.000000,-0.005818,0.010217,52.461449,23.437500
1663.000000,-0.008564,0.010223,52.607689,23.437500
1664.000000,-0.010929,0.010234,52.753326,23.437500
1665.000000,-0.012150,0.010271,52.903156,23.437500
1666.000000,-0.011311,0.010336,53.060635,23.437500
1667.000000,-0.013981,0.010391,53.211838,23.437500
1668.000000,-0.020466,0.010438,53.365356,23.437500
1669.000000,-0.021153,0.010502,53.465454,23.437500
1670.000000,-0.017033,0.010592,53.530094,23.437500
1671.000000,-0.011158,0.010648,53.573284,23.437500
1672.000000,-0.009785,0.010577,53.633556,23.437500
1673.000000,-0.001164,0.010522,53.697968,23.437500
1674.000000,0.003491,0.010441,53.799618,23.437500
1675.000000,0.002270,0.010402,53.891357,23.437500
1676.000000,-0.005894,0.010359,53.942173,27.343750
1677.000000,-0.010395,0.010335,53.974495,27.343750
1678.000000,-0.014363,0.010301,54.001350,27.343750
1679.000000,-0.012837,0.010352,54.000328,27.343750
1680.000000,-0.011616,0.010378,53.972824,27.343750
1681.000000,-0.010472,0.010406,53.960899,27.343750
1682.000000,-0.007725,0.010397,54.004639,27.343750
1683.000000,-0.008640,0.010370,54.076290,27.343750
1684.000000,-0.008183,0.010345,54.148293,27.343750
1685.000000,-0.008488,0.010359,54.191406,27.343750
1686.000000,-0.002918,0.010363,54.219952,27.343750
1687.000000,-0.005207,0.010317,54.255314,27.343750
1688.000000,-0.008717,0.010311,54.255680,27.343750
1689.000000,-0.011540,0.010336,54.248905,27.343750
1690.000000,-0.013371,0.010391,54.248398,27.343750
1691.000000,-0.012760,0.010472,54.239548,27.343750
1692.000000,-0.011006,0.010522,54.231251,27.343750
1693.000000,-0.009480,0.010532,54.199497,27.343750
1694.000000,-0.008488,0.010549,54.167545,27.343750
1695.000000,-0.007115,0.010556,54.168289,27.343750
1696.000000,-0.007954,0.010559,54.170921,23.437500
1697.000000,-0.006428,0.010560,54.173977,23.437500
1698.000000,-0.009861,0.010520,54.122307,23.437500
1699.000000,-0.007496,0.010531,54.025097,23.437500
1700.000000,-0.006619,0.010541,53.904385,23.437500
1701.000000,-0.004711,0.010541,53.769482,23.437500
1702.000000,-0.009060,0.010513,53.643532,23.437500
1703.000000,-0.012417,0.010514,53.530991,23.437500
1704.000000,-0.011120,0.010535,53.428410,23.437500
1705.000000,-0.006390,0.010537,53.326065,23.437500
1706.000000,-0.003185,0.010475,53.211746,23.437500
1707.000000,-0.005016,0.010422,53.092083,23.437500
1708.000000,-0.004711,0.010369,52.975140,23.437500
1709.000000,-0.011730,0.010326,52.857819,23.437500
1710.000000,-0.018750,0.010347,52.735432,23.437500
1711.000000,-0.014782,0.010486,52.608654,23.437500
1712.000000,-0.009289,0.010545,52.474243,23.437500
1713.000000,-0.010586,0.010525,52.338280,23.437500
1714.000000,-0.008984,0.010528,52.205883,23.437500
1715.000000,-0.005779,0.010519,52.078510,23.437500
1716.000000,-0.007229,0.010504,51.952595,23.437500
1717.000000,-0.012188,0.010498,51.824043,23.437500
1718.000000,-0.013867,0.010530,51.701275,23.437500
1719.000000,-0.012417,0.010578,51.575062,23.437500
1720.000000,-0.012799,0.010613,51.443554,23.437500
1721.000000,-0.017453,0.010637,51.312439,23.437500
1722.000000,-0.016461,0.010735,51.178383,23.437500
1723.000000,-0.015545,0.010824,51.041973,23.437500
1724.000000,-0.012951,0.010884,50.908241,23.437500
1725.000000,-0.013104,0.010907,50.776188,23.437500
1726.000000,-0.012036,0.010939,50.646309,23.437500
1727.000000,-0.013180,0.010955,50.526264,23.437500
1728.000000,-0.007076,0.011000,50.415810,23.437500
1729.000000,-0.005093,0.010967,50.307339,23.437500
1730.000000,-0.004482,0.010894,50.200951,23.437500
1731.000000,-0.004788,0.010822,50.096302,23.437500
1732.000000,-0.005703,0.010790,49.995708,23.437500
1733.000000,-0.010128,0.010737,49.902451,23.437500
1734.000000,-0.013485,0.010685,49.817356,23.437500
1735.000000,-0.016690,0.010581,49.741741,23.437500
1736.000000,-0.011807,0.010548,49.671192,23.437500
1737.000000,-0.005093,0.010554,49.610001,23.437500
1738.000000,0.002155,0.010538,49.555088,23.437500
1739.000000,0.006352,0.010531,49.502045,23.437500
1740.000000,0.008183,0.010550,49.452923,19.531250
1741.000000,0.005894,0.010581,49.411304,19.531250
1742.000000,0.000477,0.010595,49.376846,19.531250
1743.000000,-0.009670,0.010571,49.352772,19.531250
1744.000000,-0.013485,0.010554,49.328167,19.531250
1745.000000,-0.013180,0.010560,49.346817,19.531250
1746.000000,-0.007534,0.010531,49.353165,19.531250
1747.000000,-0.008297,0.010508,49.340176,19.531250
1748.000000,-0.005169,0.010539,49.322567,19.531250
1749.000000,-0.005550,0.010547,49.306557,19.531250
1750.000000,-0.007992,0.010534,49.319111,19.531250
1751.000000,-0.008297,0.010546,49.345345,19.531250
1752.000000,-0.007153,0.010572,49.376629,19.531250
1753.000000,-0.010891,0.010587,49.426098,19.531250
1754.000000,-0.010510,0.010592,49.472916,19.531250
1755.000000,-0.015316,0.010557,49.531769,19.531250
1756.000000,-0.015393,0.010603,49.581722,19.531250
1757.000000,-0.016842,0.010643,49.618851,19.531250
1758.000000,-0.015087,0.010679,49.655354,19.531250
1759.000000,-0.015316,0.010670,49.702671,19.531250
1760.000000,-0.014172,0.010719,49.751507,19.531250
1761.000000,-0.010739,0.010761,49.829884,23.437500
1762.000000,-0.010128,0.010788,49.940468,23.437500
1763.000000,-0.009976,0.010820,50.061050,23.437500
1764.000000,-0.012646,0.010832,50.185677,23.437500
1765.000000,-0.011959,0.010851,50.310413,23.437500
1766.000000,-0.011501,0.010849,50.430340,23.437500
1767.000000,-0.008602,0.010851,50.536156,23.437500
1768.000000,-0.009289,0.010795,50.646709,23.437500
1769.000000,-0.008526,0.010640,50.768250,23.437500
1770.000000,-0.006313,0.010462,50.895287,23.437500
1771.000000,-0.006313,0.010342,51.033821,23.437500
1772.000000,-0.009823,0.010301,51.172314,23.437500
1773.000000,-0.009594,0.010301,51.331436,23.437500
1774.000000,-0.009442,0.010345,51.491692,23.437500
1775.000000,-0.009365,0.010382,51.647198,23.437500
1776.000000,-0.005779,0.010422,51.793549,23.437500
1777.000000,-0.004788,0.010421,51.938965,23.437500
1778.000000,-0.005093,0.010380,52.060425,23.437500
1779.000000,-0.011425,0.010293,52.189301,23.437500
1780.000000,-0.013943,0.010276,52.327221,23.437500
1781.000000,-0.011349,0.010305,52.473137,23.437500
1782.000000,-0.009518,0.010314,52.623055,23.437500
1783.000000,-0.009670,0.010329,52.796486,23.437500
1784.000000,-0.011807,0.010339,52.990147,23.437500
1785.000000,-0.005169,0.010374,53.190239,23.437500
1786.000000,-0.006924,0.010352,53.363979,23.437500
1787.000000,-0.008831,0.010371,53.539230,23.437500
1788.000000,-0.008907,0.010395,53.690052,23.437500
1789.000000,-0.010891,0.010397,53.821972,23.437500
1790.000000,-0.014935,0.010390,53.942791,23.437500
1791.000000,-0.011425,0.010411,54.083057,23.437500
1792.000000,-0.013561,0.010396,54.222485,23.437500
1793.000000,-0.011349,0.010426,54.365963,27.343750
1794.000000,-0.006924,0.010444,54.517025,27.343750
1795.000000,-0.002270,0.010433,54.661644,27.343750
1796.000000,-0.003033,0.010411,54.808571,27.343750
1797.000000,-0.007687,0.010385,54.903156,27.343750
1798.000000,-0.008984,0.010394,54.963463,27.343750
1799.000000,-0.009213,0.010386,55.002293,27.343750
1800.000000,-0.008717,0.010399,55.057751,27.343750
1801.000000,-0.009022,0.010415,55.117287,27.343750
1802.000000,-0.006809,0.010443,55.213703,27.343750
1803.000000,-0.007496,0.010426,55.300503,27.343750
1804.000000,-0.006657,0.010379,55.346874,27.343750
1805.000000,-0.006886,0.010341,55.375290,27.343750
1806.000000,-0.006886,0.010344,55.397774,27.343750
1807.000000,-0.010166,0.010362,55.391914,27.343750
1808.000000,-0.012531,0.010400,55.358475,27.343750
1809.000000,-0.013447,0.010464,55.340805,27.343750
1810.000000,-0.013447,0.010485,55.379272,27.343750
1811.000000,-0.011997,0.010403,55.447369,27.343750
1812.000000,-0.012531,0.010367,55.518452,27.343750
1813.000000,-0.010243,0.010401,55.562008,27.343750
1814.000000,-0.010472,0.010398,55.589565,27.343750
1815.000000,-0.009174,0.010412,55.622730,27.343750
1816.000000,-0.005970,0.010436,55.620525,27.343750
1817.000000,-0.004215,0.010428,55.613403,27.343750
1818.000000,-0.009556,0.010365,55.614067,27.343750
1819.000000,-0.016270,0.010316,55.607662,27.343750
1820.000000,-0.021763,0.010370,55.602596,27.343750
1821.000000,-0.022984,0.010518,55.574028,27.343750
1822.000000,-0.018864,0.010624,55.544273,27.343750
1823.000000,-0.008335,0.010664,55.545929,27.343750
1824.000000,-0.004597,0.010583,55.549843,27.343750
1825.000000,0.001659,0.010513,55.554714,27.343750
1826.000000,0.004711,0.010433,55.505966,27.343750
1827.000000,0.006924,0.010374,55.412338,27.343750
1828.000000,0.003796,0.010313,55.295540,27.343750
1829.000000,-0.005741,0.010296,55.164135,27.343750
1830.000000,-0.013218,0.010299,55.041382,27.343750
1831.000000,-0.016346,0.010374,54.932884,27.343750
1832.000000,-0.016957,0.010491,54.835548,27.343750
1833.000000,-0.015583,0.010612,54.739731,27.343750
1834.000000,-0.010548,0.010678,54.632725,27.343750
1835.000000,0.002499,0.010645,54.520340,27.343750
1836.000000,0.007763,0.010516,54.410694,23.437500
1837.000000,0.008831,0.010478,54.300396,23.437500
1838.000000,0.006695,0.010503,54.184902,23.437500
1839.000000,-0.000401,0.010522,54.065174,23.437500
1840.000000,-0.013447,0.010503,53.938046,23.437500
1841.000000,-0.017262,0.010557,53.809395,23.437500
1842.000000,-0.014897,0.010681,53.684669,23.437500
1843.000000,-0.013447,0.010784,53.565193,23.437500
1844.000000,-0.012531,0.010825,53.447285,23.437500
1845.000000,-0.014210,0.010813,53.326366,23.437500
1846.000000,-0.009174,0.010826,53.211151,23.437500
1847.000000,-0.010700,0.010839,53.092754,23.437500
1848.000000,-0.011311,0.010860,52.970203,23.437500
1849.000000,-0.007877,0.010906,52.848202,23.437500
1850.000000,-0.007191,0.010921,52.723610,23.437500
1851.000000,-0.004978,0.010915,52.596840,23.437500
1852.000000,-0.012913,0.010895,52.472412,23.437500
1853.000000,-0.020008,0.010948,52.349560,23.437500
1854.000000,-0.017796,0.011076,52.228840,23.437500
1855.000000,-0.015049,0.011169,52.117931,23.437500
1856.000000,-0.016880,0.011165,52.016502,23.437500
1857.000000,-0.013828,0.011186,51.917004,23.437500
1858.000000,-0.009709,0.011145,51.819427,23.437500
1859.000000,-0.011997,0.011085,51.723446,23.437500
1860.000000,-0.010853,0.011044,51.631557,23.437500
1861.000000,-0.008717,0.011006,51.546902,23.437500
1862.000000,-0.007801,0.010988,51.470242,23.437500
1863.000000,-0.009251,0.010969,51.402905,23.437500
1864.000000,-0.011845,0.010963,51.340519,23.437500
1865.000000,-0.010548,0.010954,51.287315,23.437500
1866.000000,-0.014057,0.010940,51.240246,23.437500
1867.000000,-0.012531,0.010969,51.194859,23.437500
1868.000000,-0.010929,0.011007,51.153259,23.437500
1869.000000,-0.006809,0.011022,51.119080,23.437500
1870.000000,-0.008564,0.011010,51.091858,23.437500
1871.000000,-0.007877,0.011026,51.074753,23.437500
1872.000000,-0.007038,0.011036,51.056965,23.437500
1873.000000,-0.006123,0.011014,51.084026,23.437500
1874.000000,-0.005360,0.010990,51.103210,23.437500
1875.000000,-0.007267,0.010962,51.108257,23.437500
1876.000000,-0.007115,0.010946,51.112461,23.437500
1877.000000,-0.006352,0.010954,51.121502,23.437500
1878.000000,-0.007420,0.010962,51.162472,23.437500
1879.000000,-0.009098,0.010975,51.221684,23.437500
1880.000000,-0.008793,0.010953,51.291348,23.437500
1881.000000,-0.006123,0.010900,51.383404,23.437500
1882.000000,-0.009327,0.010858,51.476612,23.437500
1883.000000,-0.003529,0.010856,51.586163,23.437500
1884.000000,-0.001774,0.010819,51.691799,23.437500
1885.000000,-0.003986,0.010756,51.786858,23.437500
1886.000000,-0.006504,0.010751,51.883221,23.437500
1887.000000,-0.010853,0.010748,51.990334,23.437500
1888.000000,-0.009022,0.010766,52.100117,23.437500
1889.000000,-0.008488,0.010767,52.238518,23.437500
1890.000000,-0.008488,0.010746,52.409412,23.437500
1891.000000,-0.011616,0.010675,52.595165,23.437500
1892.000000,-0.014210,0.010677,52.799824,23.437500
1893.000000,-0.012455,0.010686,53.018642,23.437500
1894.000000,-0.013142,0.010698,53.238586,23.437500
1895.000000,-0.013371,0.010756,53.454849,23.437500
1896.000000,-0.011463,0.010837,53.669426,23.437500
1897.000000,-0.010777,0.010893,53.880894,23.437500
1898.000000,-0.010243,0.010919,54.094528,23.437500
1899.000000,-0.007572,0.010930,54.313431,23.437500
1900.000000,-0.005093,0.010918,54.542786,23.437500
1901.000000,-0.002956,0.010895,54.803070,23.437500
1902.000000,-0.003491,0.010861,55.074989,23.437500
1903.000000,-0.007382,0.010845,55.340164,27.343750
1904.000000,-0.012646,0.010845,55.602859,27.343750
1905.000000,-0.016918,0.010898,55.874352,27.343750
1906.000000,-0.015927,0.011007,56.144115,27.343750
1907.000000,-0.011196,0.011100,56.439331,27.343750
1908.000000,-0.000515,0.011110,56.755184,27.343750
1909.000000,0.005512,0.011039,57.074276,27.343750
1910.000000,0.010166,0.010971,57.379868,27.343750
1911.000000,0.004673,0.010936,57.699295,27.343750
1912.000000,-0.000973,0.010880,58.027653,27.343750
1913.000000,-0.009518,0.010808,58.369022,27.343750
1914.000000,-0.014401,0.010801,58.710178,27.343750
1915.000000,-0.011730,0.010846,59.067974,27.343750
1916.000000,-0.012493,0.010871,59.456272,31.250000
1917.000000,-0.011730,0.010926,59.855423,31.250000
1918.000000,-0.010433,0.010981,60.251640,31.250000
1919.000000,-0.011501,0.010989,60.656399,31.250000
1920.000000,-0.006695,0.010928,61.045513,31.250000
1921.000000,-0.007916,0.010730,61.444004,31.250000
1922.000000,-0.013333,0.010511,61.858521,31.250000
1923.000000,-0.017453,0.010426,62.276577,31.250000
1924.000000,-0.018215,0.010538,62.714565,35.156250
1925.000000,-0.017529,0.010685,63.111130,35.156250
1926.000000,-0.016003,0.010826,63.491486,35.156250
1927.000000,-0.015927,0.010934,63.854332,35.156250
1928.000000,-0.013714,0.011027,64.236862,35.156250
1929.000000,-0.015469,0.011106,64.642120,35.156250
1930.000000,-0.017910,0.011198,65.091797,35.156250
1931.000000,-0.012799,0.011263,65.535690,35.156250
1932.000000,-0.015011,0.011217,65.962334,35.156250
1933.000000,-0.012417,0.011190,66.357185,39.062500
1934.000000,-0.011273,0.011150,66.734428,39.062500
1935.000000,-0.012646,0.011157,67.089378,39.062500
1936.000000,-0.009213,0.011226,67.414307,39.062500
1937.000000,-0.008145,0.011237,67.754471,42.968750
1938.000000,-0.005627,0.011231,68.171906,42.968750
1939.000000,-0.004025,0.011225,68.640068,54.687500
1940.000000,-0.004711,0.011233,69.118324,66.406250
1941.000000,-0.007610,0.011162,69.568222,70.312500
1942.000000,-0.009213,0.011054,70.005516,74.218750
1943.000000,-0.009594,0.010992,70.461678,74.218750
1944.000000,-0.008907,0.010951,70.899124,74.218750
1945.000000,-0.007229,0.010916,71.356117,74.218750
1946.000000,-0.004406,0.010847,71.803169,74.218750
1947.000000,-0.006695,0.010817,72.234932,78.125000
1948.000000,-0.006695,0.010785,72.666237,78.125000
1949.000000,-0.006695,0.010746,73.074303,78.125000
1950.000000,-0.006847,0.010738,73.517868,78.125000
1951.000000,-0.005703,0.010736,74.017586,78.125000
1952.000000,-0.010662,0.010739,74.534164,78.125000
1953.000000,-0.009594,0.010715,75.048294,78.125000
1954.000000,-0.009899,0.010570,75.495926,82.031250
1955.000000,-0.010433,0.010466,75.880798,82.031250
1956.000000,-0.009823,0.010410,76.212341,82.031250
1957.000000,-0.010586,0.010319,76.515335,82.031250
1958.000000,-0.011349,0.010280,76.843788,82.031250
1959.000000,-0.013027,0.010297,77.189453,82.031250
1960.000000,-0.014172,0.010309,77.553780,82.031250
1961.000000,-0.011196,0.010350,77.913895,82.031250
1962.000000,-0.011273,0.010373,78.281044,82.031250
1963.000000,-0.010891,0.010405,78.629311,82.031250
1964.000000,-0.011730,0.010421,78.975143,82.031250
1965.000000,-0.011807,0.010420,79.318573,82.031250
1966.000000,-0.009136,0.010433,79.649765,82.031250
1967.000000,-0.009976,0.010379,79.958839,82.031250
1968.000000,-0.015774,0.010351,80.263702,85.937500
1969.000000,-0.018978,0.010413,80.556816,85.937500
1970.000000,-0.021267,0.010563,80.849083,85.937500
1971.000000,-0.018368,0.010741,81.139328,85.937500
1972.000000,-0.022488,0.010868,81.439903,85.937500
1973.000000,-0.012264,0.011076,81.774719,85.937500
1974.000000,-0.011501,0.011127,82.095535,85.937500
1975.000000,-0.008068,0.011173,82.392723,85.937500
1976.000000,-0.001507,0.011179,82.675369,85.937500
1977.000000,0.003529,0.011157,82.937721,85.937500
1978.000000,0.002918,0.011145,83.181793,85.937500
1979.000000,0.003452,0.011124,83.403603,85.937500
1980.000000,-0.009442,0.011092,83.606209,85.937500
1981.000000,-0.019818,0.011097,83.788109,85.937500
1982.000000,-0.020352,0.011256,83.952454,85.937500
1983.000000,-0.019894,0.011400,84.123291,85.937500
1984.000000,-0.009670,0.011567,84.301315,85.937500
1985.000000,0.001545,0.011606,84.460258,85.937500
1986.000000,0.016041,0.011601,84.594910,85.937500
1987.000000,0.018788,0.011693,84.700142,85.937500
1988.000000,0.014820,0.011793,84.783714,85.937500
1989.000000,0.008106,0.011851,84.861046,85.937500
1990.000000,-0.002880,0.011849,84.943253,85.937500
1991.000000,-0.008831,0.011822,85.024765,85.937500
1992.000000,-0.016384,0.011798,85.103447,85.937500
1993.000000,-0.016995,0.011826,85.185112,85.937500
1994.000000,-0.016079,0.011882,85.255035,85.937500
1995.000000,-0.012951,0.011918,85.305794,85.937500
1996.000000,-0.006924,0.011914,85.340691,85.937500
1997.000000,-0.004177,0.011879,85.359100,85.937500
1998.000000,-0.002728,0.011837,85.363724,85.937500
1999.000000,-0.003796,0.011796,85.352318,85.937500
2000.000000,-0.010090,0.011778,85.325752,85.937500
2001.000000,-0.013066,0.011810,85.434532,85.937500
2002.000000,-0.014591,0.011878,85.547127,85.937500
2003.000000,-0.017872,0.011962,85.653511,85.937500
2004.000000,-0.022526,0.012073,85.751434,85.937500
2005.000000,-0.021611,0.012216,85.831825,85.937500
2006.000000,-0.020390,0.012289,85.914986,85.937500
2007.000000,-0.017109,0.012355,85.996559,85.937500
2008.000000,-0.013523,0.012423,86.067963,85.937500
2009.000000,-0.014820,0.012496,86.138626,85.937500
2010.000000,-0.012837,0.012571,86.214127,85.937500
2011.000000,-0.010166,0.012596,86.298889,85.937500
2012.000000,-0.010319,0.012628,86.373314,85.937500
2013.000000,-0.012150,0.012670,86.440628,85.937500
2014.000000,-0.008259,0.012692,86.497292,85.937500
2015.000000,-0.009556,0.012637,86.547081,85.937500
2016.000000,-0.012379,0.012619,86.586365,85.937500
2017.000000,-0.013142,0.012618,86.622749,85.937500
2018.000000,-0.011769,0.012632,86.654465,85.937500
2019.000000,-0.009403,0.012644,86.681320,85.937500
2020.000000,-0.009556,0.012626,86.726799,85.937500
2021.000000,-0.007115,0.012645,86.781975,85.937500
2022.000000,-0.005589,0.012640,86.828979,85.937500
2023.000000,-0.007115,0.012582,86.871727,85.937500
2024.000000,-0.006886,0.012480,86.898872,85.937500
2025.000000,-0.006046,0.012366,86.903374,85.937500
2026.000000,-0.009556,0.012256,86.895378,85.937500
2027.000000,-0.006733,0.012189,86.880875,85.937500
2028.000000,-0.006199,0.012103,86.872894,85.937500
2029.000000,-0.008412,0.012041,86.873726,85.937500
2030.000000,-0.009785,0.011971,86.870003,85.937500
2031.000000,-0.009327,0.011876,86.855919,85.937500
2032.000000,-0.007038,0.011844,86.851540,85.937500
2033.000000,-0.005283,0.011770,86.854431,85.937500
2034.000000,-0.005207,0.011716,86.859741,85.937500
2035.000000,-0.005360,0.011673,86.864120,85.937500
2036.000000,-0.009174,0.011617,86.869339,85.937500
2037.000000,-0.007954,0.011616,86.867783,85.937500
2038.000000,-0.005131,0.011615,86.852753,85.937500
2039.000000,-0.007954,0.011613,86.831223,85.937500
2040.000000,-0.009098,0.011633,86.804306,85.937500
2041.000000,-0.009937,0.011659,86.777046,85.937500
2042.000000,-0.006733,0.011677,86.752945,85.937500
2043.000000,-0.005818,0.011660,86.730652,85.937500
2044.000000,-0.004902,0.011635,86.726082,85.937500
2045.000000,-0.007649,0.011611,86.715706,85.937500
2046.000000,-0.010700,0.011614,86.701645,85.937500
2047.000000,-0.006733,0.011654,86.684891,85.937500
2048.000000,-0.007877,0.011655,86.660042,85.937500
2049.000000,-0.008183,0.011662,86.637581,85.937500
2050.000000,-0.008717,0.011671,86.609268,85.937500
2051.000000,-0.007115,0.011684,86.575371,85.937500
2052.000000,-0.009174,0.011692,86.552299,85.937500
2053.000000,-0.008793,0.011679,86.536514,85.937500
2054.000000,-0.008259,0.011673,86.540161,85.937500
2055.000000,-0.008717,0.011660,86.529121,85.937500
2056.000000,-0.011234,0.011646,86.509392,85.937500
2057.000000,-0.009861,0.011659,86.495468,85.937500
2058.000000,-0.010548,0.011652,86.483978,85.937500
2059.000000,-0.009785,0.011645,86.462311,85.937500
2060.000000,-0.010090,0.011613,86.439911,85.937500
2061.000000,-0.009098,0.011570,86.427696,85.937500
2062.000000,-0.009480,0.011552,86.435432,85.937500
2063.000000,-0.009937,0.011536,86.448898,85.937500
2064.000000,-0.010700,0.011527,86.453857,85.937500
2065.000000,-0.011692,0.011517,86.446098,85.937500
2066.000000,-0.011845,0.011516,86.429924,85.937500
2067.000000,-0.009861,0.011541,86.418549,85.937500
2068.000000,-0.011616,0.011540,86.405067,85.937500
2069.000000,-0.011158,0.011490,86.383873,85.937500
2070.000000,-0.007038,0.011387,86.352890,85.937500
2071.000000,-0.004139,0.011209,86.329811,85.937500
2072.000000,-0.009556,0.011065,86.322136,85.937500
2073.000000,-0.013523,0.010876,86.331757,85.937500
2074.000000,-0.013676,0.010891,86.343864,85.937500
2075.000000,-0.008869,0.010916,86.359245,85.937500
2076.000000,-0.007572,0.010922,86.364761,85.937500
2077.000000,-0.007649,0.010948,86.359871,85.937500
2078.000000,-0.007801,0.010969,86.358208,85.937500
2079.000000,-0.008335,0.010992,86.361778,85.937500
2080.000000,-0.010319,0.011019,86.366089,85.937500
2081.000000,-0.011387,0.011026,86.372482,85.937500
2082.000000,-0.008793,0.010907,86.381546,85.937500
2083.000000,-0.009632,0.010751,86.399246,85.937500
2084.000000,-0.012226,0.010609,86.406967,85.937500
2085.000000,-0.012684,0.010635,86.411674,85.937500
2086.000000,-0.013142,0.010710,86.416328,85.937500
2087.000000,-0.011082,0.010670,86.417175,85.937500
2088.000000,-0.009251,0.010562,86.428780,85.937500
2089.000000,-0.005589,0.010498,86.437569,85.937500
2090.000000,0.000286,0.010482,86.448624,85.937500
2091.000000,0.000362,0.010478,86.463066,85.937500
2092.000000,-0.000172,0.010440,86.481728,85.937500
2093.000000,-0.006809,0.010311,86.498566,85.937500
2094.000000,-0.013828,0.010193,86.520035,85.937500
2095.000000,-0.014973,0.010160,86.544434,85.937500
2096.000000,-0.015736,0.010188,86.574806,85.937500
2097.000000,-0.010243,0.010285,86.602898,85.937500
2098.000000,-0.002003,0.010328,86.633965,85.937500
2099.000000,0.000515,0.010326,86.664742,85.937500
2100.000000,0.004292,0.010319,86.713455,85.937500
2101.000000,0.003376,0.010279,86.797462,85.937500
2102.000000,0.000095,0.010201,86.877968,85.937500
2103.000000,-0.005932,0.010096,86.954994,85.937500
2104.000000,-0.008450,0.009954,87.037621,85.937500
2105.000000,-0.013409,0.009733,87.118622,85.937500
2106.000000,-0.013867,0.009584,87.197945,85.937500
2107.000000,-0.013485,0.009467,87.265114,85.937500
2108.000000,-0.013256,0.009408,87.327698,85.937500
2109.000000,-0.014858,0.009404,87.385590,85.937500
2110.000000,-0.010967,0.009405,87.442223,85.937500
2111.000000,-0.009518,0.009381,87.515259,85.937500
2112.000000,-0.008450,0.009374,87.605675,85.937500
2113.000000,-0.008145,0.009355,87.688843,85.937500
2114.000000,-0.009823,0.009312,87.757469,85.937500
2115.000000,-0.012951,0.009327,87.806381,85.937500
2116.000000,-0.014630,0.009368,87.841789,85.937500
2117.000000,-0.014630,0.009400,87.879951,85.937500
2118.000000,-0.018139,0.009422,87.934029,85.937500
2119.000000,-0.019512,0.009523,87.990211,89.843750
2120.000000,-0.015469,0.009675,88.050728,89.843750
2121.000000,-0.013867,0.009751,88.127975,89.843750
2122.000000,-0.010128,0.009824,88.209702,89.843750
2123.000000,-0.008221,0.009860,88.282913,89.843750
2124.000000,-0.006771,0.009869,88.343620,89.843750
2125.000000,-0.007000,0.009868,88.399696,89.843750
2126.000000,-0.009823,0.009874,88.448471,89.843750
2127.000000,-0.009136,0.009877,88.493103,89.843750
2128.000000,-0.009442,0.009896,88.531296,89.843750
2129.000000,-0.008297,0.009922,88.567253,89.843750
2130.000000,-0.009442,0.009921,88.597122,89.843750
2131.000000,-0.009136,0.009917,88.625198,89.843750
2132.000000,-0.008679,0.009915,88.652832,89.843750
2133.000000,-0.007076,0.009928,88.674141,89.843750
2134.000000,-0.007916,0.009940,88.697495,89.843750
2135.000000,-0.007687,0.009957,88.722343,89.843750
2136.000000,-0.007610,0.009973,88.743317,89.843750
2137.000000,-0.008831,0.009960,88.763489,89.843750
2138.000000,-0.006542,0.009967,88.775078,89.843750
2139.000000,-0.010281,0.009975,88.788132,89.843750
2140.000000,-0.011578,0.009996,88.791702,89.843750
2141.000000,-0.012722,0.010022,88.785789,89.843750
2142.000000,-0.007610,0.010053,88.788010,89.843750
2143.000000,-0.007305,0.010060,88.790375,89.843750
2144.000000,-0.007992,0.010069,88.788467,89.843750
2145.000000,-0.008679,0.010089,88.782845,89.843750
2146.000000,-0.010586,0.010098,88.774277,89.843750
2147.000000,-0.008984,0.010096,88.758430,89.843750
2148.000000,-0.012417,0.010114,88.746857,89.843750
2149.000000,-0.008831,0.010159,88.735634,89.843750
2150.000000,-0.008068,0.010165,88.725327,89.843750
2151.000000,-0.011196,0.010159,88.701057,89.843750
2152.000000,-0.010891,0.010196,88.668091,89.843750
2153.000000,-0.006008,0.010213,88.634369,89.843750
2154.000000,-0.005932,0.010193,88.595825,89.843750
2155.000000,-0.010586,0.010177,88.549553,89.843750
2156.000000,-0.012493,0.010194,88.499771,89.843750
2157.000000,-0.007992,0.010209,88.457214,85.937500
2158.000000,-0.006695,0.010193,88.405518,85.937500
2159.000000,-0.008602,0.010160,88.347313,85.937500
2160.000000,-0.008984,0.010149,88.304901,85.937500
2161.000000,-0.006695,0.010139,88.267952,85.937500
2162.000000,-0.007992,0.010120,88.234848,85.937500
2163.000000,-0.010510,0.010107,88.197693,85.937500
2164.000000,-0.010891,0.010113,88.155243,85.937500
2165.000000,-0.011501,0.010115,88.105705,85.937500
2166.000000,-0.009899,0.010113,88.050903,85.937500
2167.000000,-0.008602,0.010092,87.997391,85.937500
2168.000000,-0.008755,0.010080,87.944633,85.937500
2169.000000,-0.010357,0.010051,87.884247,85.937500
2170.000000,-0.007305,0.010043,87.820930,85.937500
2171.000000,-0.009365,0.010045,87.753944,85.937500
2172.000000,-0.010433,0.010080,87.690254,85.937500
2173.000000,-0.009442,0.010089,87.625984,85.937500
2174.000000,-0.013409,0.010042,87.564957,85.937500
2175.000000,-0.014935,0.010038,87.508682,85.937500
2176.000000,-0.013790,0.010110,87.447845,85.937500
2177.000000,-0.013333,0.010175,87.388084,85.937500
2178.000000,-0.010739,0.010234,87.326157,85.937500
2179.000000,-0.011883,0.010260,87.254829,85.937500
2180.000000,-0.011807,0.010295,87.178551,85.937500
2181.000000,-0.011883,0.010311,87.101814,85.937500
2182.000000,-0.010128,0.010317,87.038185,85.937500
2183.000000,-0.004635,0.010329,86.975624,85.937500
2184.000000,-0.002041,0.010295,86.917580,85.937500
2185.000000,-0.004482,0.010224,86.870071,85.937500
2186.000000,-0.006313,0.010155,86.835709,85.937500
2187.000000,-0.012722,0.010089,86.793060,85.937500
2188.000000,-0.016537,0.010108,86.741035,85.937500
2189.000000,-0.016003,0.010201,86.683426,85.937500
2190.000000,-0.009289,0.010311,86.634201,85.937500
2191.000000,-0.005169,0.010352,86.585426,85.937500
2192.000000,0.002155,0.010365,86.532570,85.937500
2193.000000,0.005131,0.010367,86.474663,85.937500
2194.000000,0.003147,0.010358,86.423134,85.937500
2195.000000,-0.001202,0.010270,86.387581,85.937500
2196.000000,-0.005550,0.010161,86.357994,85.937500
2197.000000,-0.008068,0.010053,86.324562,85.937500
2198.000000,-0.010662,0.010034,86.282791,85.937500
2199.000000,-0.013027,0.010088,86.241516,85.937500
2200.000000,-0.013447,0.010172,86.205429,85.937500
2201.000000,-0.007954,0.010251,86.177666,85.937500
2202.000000,-0.005283,0.010277,86.157227,85.937500
2203.000000,-0.003071,0.010290,86.141113,85.937500
2204.000000,-0.004978,0.010278,86.125153,85.937500
2205.000000,-0.006809,0.010255,86.105713,85.937500
2206.000000,-0.009403,0.010190,86.096191,85.937500
2207.000000,-0.008717,0.010139,86.099182,85.937500
2208.000000,-0.013905,0.010086,86.106644,85.937500
2209.000000,-0.013752,0.010095,86.116112,85.937500
2210.000000,-0.015507,0.010079,86.124405,85.937500
2211.000000,-0.015354,0.010139,86.140518,85.937500
2212.000000,-0.011082,0.010210,86.149872,85.937500
2213.000000,-0.009937,0.010235,86.154030,85.937500
2214.000000,-0.012074,0.010251,86.158134,85.937500
2215.000000,-0.010395,0.010275,86.167168,85.937500
2216.000000,-0.008717,0.010246,86.189217,85.937500
2217.000000,-0.008259,0.010178,86.214622,85.937500
2218.000000,-0.009022,0.010106,86.238876,85.937500
2219.000000,-0.012303,0.009983,86.263908,85.937500
2220.000000,-0.012074,0.009868,86.299019,85.937500
2221.000000,-0.013066,0.009820,86.337738,85.937500
2222.000000,-0.010472,0.009809,86.374496,85.937500
2223.000000,-0.009174,0.009813,86.411613,85.937500
2224.000000,-0.006733,0.009821,86.453392,85.937500
2225.000000,-0.005436,0.009821,86.494553,85.937500
2226.000000,-0.006580,0.009811,86.532982,85.937500
2227.000000,-0.005207,0.009784,86.570633,85.937500
2228.000000,-0.011158,0.009755,86.622543,85.937500
2229.000000,-0.013523,0.009773,86.689987,85.937500
2230.000000,-0.011006,0.009831,86.767258,85.937500
2231.000000,-0.008564,0.009848,86.841621,85.937500
2232.000000,-0.007420,0.009842,86.911133,85.937500
2233.000000,-0.008717,0.009832,86.977058,85.937500
2234.000000,-0.007572,0.009845,87.039970,85.937500
2235.000000,-0.006504,0.009843,87.092957,85.937500
2236.000000,-0.009022,0.009834,87.150116,85.937500
2237.000000,-0.009098,0.009846,87.209015,85.937500
2238.000000,-0.007954,0.009848,87.264435,85.937500
2239.000000,-0.007877,0.009859,87.333862,85.937500
2240.000000,-0.009022,0.009837,87.420418,85.937500
2241.000000,-0.008946,0.009810,87.505806,85.937500
2242.000000,-0.010090,0.009768,87.581650,85.937500
2243.000000,-0.011234,0.009791,87.636215,85.937500
2244.000000,-0.010014,0.009828,87.675186,85.937500
2245.000000,-0.007572,0.009846,87.712143,85.937500
2246.000000,-0.006428,0.009837,87.767654,85.937500
2247.000000,-0.005283,0.009801,87.822624,85.937500
2248.000000,-0.007801,0.009774,87.891670,85.937500
2249.000000,-0.009098,0.009726,87.982201,89.843750
2250.000000,-0.010548,0.009729,88.079544,89.843750
2251.000000,-0.011921,0.009752,88.177559,89.843750
2252.000000,-0.011006,0.009761,88.259720,89.843750
2253.000000,-0.008946,0.009762,88.334030,89.843750
2254.000000,-0.010472,0.009785,88.401566,89.843750
2255.000000,-0.008335,0.009823,88.459702,89.843750
2256.000000,-0.009632,0.009801,88.511574,89.843750
2257.000000,-0.009480,0.009769,88.560394,89.843750
2258.000000,-0.010166,0.009782,88.607971,89.843750
2259.000000,-0.011769,0.009812,88.668037,89.843750
2260.000000,-0.009403,0.009845,88.733887,89.843750
2261.000000,-0.009403,0.009848,88.794334,89.843750
2262.000000,-0.011997,0.009871,88.848061,89.843750
2263.000000,-0.010090,0.009911,88.899681,89.843750
2264.000000,-0.013600,0.009907,88.951759,89.843750
2265.000000,-0.009403,0.009940,88.999405,89.843750
2266.000000,-0.008412,0.009918,89.039162,89.843750
2267.000000,-0.009098,0.009904,89.076469,89.843750
2268.000000,-0.010014,0.009909,89.100914,89.843750
2269.000000,-0.013142,0.009921,89.115929,89.843750
2270.000000,-0.016804,0.009954,89.132973,89.843750
2271.000000,-0.010853,0.010068,89.152214,89.843750
2272.000000,-0.012150,0.010083,89.172661,89.843750
2273.000000,-0.005970,0.010102,89.190216,89.843750
2274.000000,-0.002537,0.010076,89.204132,89.843750
2275.000000,0.000134,0.009989,89.207825,89.843750
2276.000000,-0.002308,0.009877,89.214272,89.843750
2277.000000,-0.001087,0.009783,89.218391,89.843750
2278.000000,-0.007572,0.009692,89.221909,89.843750
2279.000000,-0.012608,0.009662,89.212166,89.843750
2280.000000,-0.016194,0.009671,89.192856,89.843750
2281.000000,-0.015431,0.009735,89.173553,89.843750
2282.000000,-0.008488,0.009784,89.151878,89.843750
2283.000000,-0.002766,0.009769,89.123352,89.843750
2284.000000,0.001431,0.009762,89.092453,89.843750
2285.000000,0.001583,0.009761,89.068817,89.843750
2286.000000,0.001812,0.009752,89.035118,89.843750
2287.000000,-0.001164,0.009733,88.994408,89.843750
2288.000000,-0.010090,0.009650,88.970367,89.843750
2289.000000,-0.014591,0.009561,88.952232,85.937500
2290.000000,-0.015736,0.009538,88.938026,85.937500
2291.000000,-0.014515,0.009622,88.919212,85.937500
2292.000000,-0.010700,0.009717,88.894806,85.937500
2293.000000,-0.011234,0.009774,88.863655,85.937500
2294.000000,-0.009251,0.009825,88.827507,85.937500
2295.000000,-0.007343,0.009863,88.792549,85.937500
2296.000000,-0.011158,0.009890,88.759659,85.937500
2297.000000,-0.012837,0.009937,88.719055,85.937500
2298.000000,-0.010624,0.009987,88.675148,85.937500
2299.000000,-0.009709,0.009987,88.627769,85.937500
2300.000000,-0.010510,0.009949,88.582245,85.937500
2301.000000,-0.009136,0.009913,88.536392,85.937500
2302.000000,-0.011273,0.009923,88.495720,85.937500
2303.000000,-0.015698,0.009973,88.460213,85.937500
2304.000000,-0.014096,0.010091,88.418396,85.937500
2305.000000,-0.011654,0.010177,88.376419,85.937500
2306.000000,-0.009823,0.010221,88.329521,85.937500
2307.000000,-0.007916,0.010225,88.271706,85.937500
2308.000000,-0.006085,0.010219,88.207848,85.937500
2309.000000,-0.005703,0.010142,88.144104,85.937500
2310.000000,-0.007000,0.010064,88.101189,85.937500
2311.000000,-0.008602,0.009969,88.059380,85.937500
2312.000000,-0.010586,0.009887,88.021278,85.937500
2313.000000,-0.010586,0.009882,87.996201,85.937500
2314.000000,-0.009594,0.009888,87.986610,85.937500
2315.000000,-0.007763,0.009861,87.966911,85.937500
2316.000000,-0.007382,0.009837,87.936722,85.937500
2317.000000,-0.007382,0.009826,87.899940,85.937500
2318.000000,-0.007534,0.009819,87.868546,85.937500
2319.000000,-0.010204,0.009807,87.836617,85.937500
2320.000000,-0.013943,0.009782,87.800896,85.937500
2321.000000,-0.013638,0.009807,87.765739,85.937500
2322.000000,-0.015011,0.009815,87.741127,85.937500
2323.000000,-0.016613,0.009874,87.735397,85.937500
2324.000000,-0.012188,0.009970,87.729385,85.937500
2325.000000,-0.011501,0.010022,87.716248,85.937500
2326.000000,-0.011044,0.010073,87.692497,85.937500
2327.000000,-0.010128,0.010112,87.668617,85.937500
2328.000000,-0.002193,0.010149,87.652740,85.937500
2329.000000,-0.002346,0.010090,87.646118,85.937500
2330.000000,-0.004177,0.010002,87.646111,85.937500
2331.000000,-0.010510,0.009950,87.650726,85.937500
2332.000000,-0.014477,0.009969,87.654297,85.937500
2333.000000,-0.017147,0.010046,87.655876,85.937500
2334.000000,-0.013027,0.010154,87.665863,85.937500
2335.000000,-0.011120,0.010209,87.684654,85.937500
2336.000000,-0.005322,0.010249,87.707344,85.937500
2337.000000,0.001698,0.010223,87.730827,85.937500
2338.000000,0.008564,0.010184,87.756096,85.937500
2339.000000,0.004902,0.010189,87.793152,85.937500
2340.000000,-0.000744,0.010170,87.827782,85.937500
2341.000000,-0.006161,0.010130,87.858597,85.937500
2342.000000,-0.012264,0.010109,87.884163,85.937500
2343.000000,-0.011578,0.010133,87.912842,85.937500
2344.000000,-0.011349,0.010137,87.949783,85.937500
2345.000000,-0.007610,0.010151,87.991699,85.937500
2346.000000,-0.008221,0.010152,88.027733,85.937500
2347.000000,-0.009823,0.010165,88.066742,85.937500
2348.000000,-0.013180,0.010198,88.114792,85.937500
2349.000000,-0.012875,0.010253,88.164024,85.937500
2350.000000,-0.009136,0.010294,88.213898,85.937500
2351.000000,-0.010891,0.010280,88.270660,85.937500
2352.000000,-0.008831,0.010269,88.329491,85.937500
2353.000000,-0.012493,0.010248,88.382530,85.937500
2354.000000,-0.014782,0.010285,88.426529,85.937500
2355.000000,-0.008984,0.010338,88.465355,85.937500
2356.000000,-0.008068,0.010343,88.517105,85.937500
2357.000000,-0.006924,0.010330,88.581589,85.937500
2358.000000,-0.013790,0.010309,88.654976,85.937500
2359.000000,-0.015774,0.010351,88.731140,85.937500
2360.000000,-0.016613,0.010405,88.805641,85.937500
2361.000000,-0.013485,0.010494,88.878227,85.937500
2362.000000,-0.009136,0.010539,88.949455,85.937500
2363.000000,-0.004940,0.010510,89.005211,85.937500
2364.000000,0.001545,0.010473,89.059181,85.937500
2365.000000,0.006580,0.010386,89.114670,89.843750
2366.000000,0.004673,0.010364,89.167717,89.843750
2367.000000,-0.005093,0.010340,89.228554,89.843750
2368.000000,-0.008297,0.010313,89.302666,89.843750
2369.000000,-0.014248,0.010297,89.382538,89.843750
2370.000000,-0.010433,0.010312,89.455513,89.843750
2371.000000,-0.007687,0.010228,89.507637,89.843750
2372.000000,-0.008145,0.010199,89.544891,89.843750
2373.000000,-0.007687,0.010159,89.580040,89.843750
2374.000000,-0.009289,0.010171,89.632988,89.843750
2375.000000,-0.010510,0.010210,89.687782,89.843750
2376.000000,-0.012341,0.010264,89.750771,89.843750
2377.000000,-0.009518,0.010335,89.827080,89.843750
2378.000000,-0.008679,0.010378,89.906082,89.843750
2379.000000,-0.008145,0.010387,89.985611,89.843750
2380.000000,-0.011044,0.010342,90.052650,89.843750
2381.000000,-0.015850,0.010274,90.113770,89.843750
2382.000000,-0.017605,0.010280,90.169952,89.843750
2383.000000,-0.016537,0.010396,90.216568,89.843750
2384.000000,-0.012646,0.010523,90.254616,89.843750
2385.000000,-0.011044,0.010597,90.287025,89.843750
2386.000000,-0.013027,0.010654,90.316666,89.843750
2387.000000,-0.010204,0.010731,90.356941,89.843750
2388.000000,-0.009899,0.010779,90.398262,89.843750
2389.000000,-0.010662,0.010777,90.433662,89.843750
2390.000000,-0.011273,0.010731,90.463005,89.843750
2391.000000,-0.006619,0.010675,90.491455,89.843750
