emgT,emg,rms,mnf,mdf
0.000000,0.000000,0.000000,0.000000,0.000000
210.000000,0.399844,0.000000,0.000000,0.000000
211.000000,0.151579,0.039984,0.000000,0.000000
212.000000,-0.090047,0.042761,0.000000,0.000000
213.000000,0.033017,0.043699,0.000000,0.000000
214.000000,-0.050450,0.043823,0.000000,0.000000
215.000000,-0.229896,0.044113,0.000000,0.000000
216.000000,0.048657,0.049744,0.000000,0.000000
217.000000,0.055600,0.049981,0.000000,0.000000
218.000000,-0.144141,0.050290,0.000000,0.000000
219.000000,-0.429255,0.052315,0.000000,0.000000
220.000000,-0.309167,0.067671,0.000000,0.000000
221.000000,0.002956,0.074399,0.000000,0.000000
222.000000,0.448787,0.074400,0.000000,0.000000
223.000000,0.413882,0.086888,0.000000,0.000000
224.000000,0.269608,0.096242,0.000000,0.000000
225.000000,-0.207923,0.099947,0.000000,0.000000
226.000000,-0.483883,0.102086,0.000000,0.000000
227.000000,-0.499905,0.112974,0.000000,0.000000
228.000000,-0.281014,0.123540,0.000000,0.000000
229.000000,0.118925,0.126696,0.000000,0.000000
230.000000,0.406405,0.127253,0.000000,0.000000
231.000000,0.153410,0.133585,0.000000,0.000000
232.000000,-0.088521,0.134463,0.000000,0.000000
233.000000,0.031415,0.134754,0.000000,0.000000
234.000000,-0.052129,0.134790,0.000000,0.000000
235.000000,-0.224861,0.134891,0.000000,0.000000
236.000000,0.052625,0.136753,0.000000,0.000000
237.000000,0.063077,0.136854,0.000000,0.000000
238.000000,-0.142157,0.136999,0.000000,0.000000
239.000000,-0.431621,0.137735,0.000000,0.000000
240.000000,-0.319619,0.144339,0.000000,0.000000
241.000000,0.005169,0.147836,0.000000,0.000000
242.000000,0.455577,0.147836,0.000000,0.000000
243.000000,0.420977,0.154697,0.000000,0.000000
244.000000,0.265640,0.160323,0.000000,0.000000
245.000000,-0.212348,0.162508,0.000000,0.000000
246.000000,-0.486782,0.163890,0.000000,0.000000
247.000000,-0.500515,0.170966,0.000000,0.000000
248.000000,-0.276360,0.178142,0.000000,0.000000
249.000000,0.122969,0.180273,0.000000,0.000000
250.000000,0.408389,0.180692,0.000000,0.000000
251.000000,0.151656,0.185250,0.000000,0.000000
252.000000,-0.087682,0.185869,0.000000,0.000000
253.000000,0.031415,0.186076,0.000000,0.000000
254.000000,-0.068608,0.186103,0.000000,0.000000
255.000000,-0.221275,0.186229,0.000000,0.000000
256.000000,0.066968,0.187539,0.000000,0.000000
257.000000,0.064832,0.187658,0.000000,0.000000
258.000000,-0.138495,0.187770,0.000000,0.000000
259.000000,-0.435359,0.188280,0.000000,0.000000
260.000000,-0.322900,0.193248,0.000000,0.000000
261.000000,0.008068,0.195927,0.000000,0.000000
262.000000,0.469081,0.195929,0.000000,0.000000
263.000000,0.432498,0.201466,0.000000,0.000000
264.000000,0.272202,0.206056,0.000000,0.000000
265.000000,-0.221275,0.207846,0.000000,0.000000
266.000000,-0.483120,0.209021,0.000000,0.000000
267.000000,-0.501354,0.214531,0.000000,0.000000
268.000000,-0.273461,0.220312,0.000000,0.000000
269.000000,0.126860,0.222002,0.000000,0.000000
270.000000,0.427539,0.222365,0.000000,0.000000
271.000000,0.162642,0.226437,0.000000,0.000000
272.000000,-0.083791,0.227021,0.000000,0.000000
273.000000,0.032788,0.227175,0.000000,0.000000
274.000000,-0.068685,0.227199,0.000000,0.000000
275.000000,-0.219444,0.227303,0.000000,0.000000
276.000000,0.071927,0.228360,0.000000,0.000000
277.000000,0.066663,0.228473,0.000000,0.000000
278.000000,-0.136130,0.228570,0.000000,0.000000
279.000000,-0.433757,0.228975,0.000000,0.000000
280.000000,-0.315805,0.233047,0.000000,0.000000
281.000000,0.017147,0.235177,0.000000,0.000000
282.000000,0.470607,0.235184,0.000000,0.000000
283.000000,0.430514,0.239846,0.000000,0.000000
284.000000,0.269303,0.243679,0.000000,0.000000
285.000000,-0.218757,0.245163,0.000000,0.000000
286.000000,-0.483501,0.246137,0.000000,0.000000
287.000000,-0.498455,0.250841,0.000000,0.000000
288.000000,-0.269722,0.255745,0.000000,0.000000
289.000000,0.130064,0.257164,0.000000,0.000000
290.000000,0.425174,0.257492,0.000000,0.000000
291.000000,0.164168,0.260979,1.307502,0.000000
292.000000,-0.081044,0.261495,1.337225,0.000000
293.000000,0.034009,0.261620,1.525326,0.000000
294.000000,-0.071660,0.261642,1.893333,0.000000
295.000000,-0.218299,0.261740,3.049750,0.000000
296.000000,0.075818,0.262649,15.742423,0.000000
297.000000,0.066052,0.262759,18.864204,0.000000
298.000000,-0.133917,0.262842,21.583248,0.000000
299.000000,-0.432155,0.263183,77.357681,3.906250
300.000000,-0.312295,0.266707,61.937519,0.000000
301.000000,0.019131,0.268529,24.527666,0.000000
302.000000,0.471447,0.268536,33.393150,0.000000
303.000000,0.425555,0.272643,176.768158,156.250000
304.000000,0.271057,0.275944,114.501228,54.687500
305.000000,-0.217384,0.277272,66.388542,3.906250
306.000000,-0.479915,0.278123,123.971924,74.218750
307.000000,-0.495251,0.282233,190.216660,167.968750
308.000000,-0.265908,0.286546,95.085785,3.906250
309.000000,0.134184,0.287777,70.880409,3.906250
310.000000,0.421626,0.288089,94.935493,3.906250
311.000000,0.157721,0.288400,162.504059,152.343750
312.000000,-0.089475,0.288433,182.784576,160.156250
313.000000,0.033131,0.288431,175.763168,160.156250
314.000000,-0.067350,0.288431,179.054214,160.156250
315.000000,-0.221771,0.288466,175.907578,156.250000
316.000000,0.072423,0.288402,161.202301,152.343750
317.000000,0.065862,0.288452,166.754333,152.343750
318.000000,-0.135176,0.288473,171.036636,156.250000
319.000000,-0.430285,0.288430,164.830444,152.343750
320.000000,-0.311875,0.288445,144.053513,144.531250
321.000000,0.021534,0.288475,131.111313,132.812500
322.000000,0.469158,0.288482,135.617233,136.718750
323.000000,0.421168,0.288806,157.480652,148.437500
324.000000,0.277886,0.288912,169.500244,152.343750
325.000000,-0.215286,0.288990,172.174362,152.343750
326.000000,-0.477665,0.289044,169.155716,152.343750
327.000000,-0.498417,0.288941,160.334442,148.437500
328.000000,-0.273575,0.288915,149.228333,144.531250
329.000000,0.126211,0.288843,143.933456,144.531250
330.000000,0.435359,0.288874,148.562546,144.531250
331.000000,0.175193,0.289296,157.360519,148.437500
332.000000,-0.083371,0.289420,159.814117,148.437500
333.000000,0.032216,0.289404,158.785049,148.437500
334.000000,-0.079633,0.289405,159.214661,148.437500
335.000000,-0.225051,0.289468,158.505539,148.437500
336.000000,0.077230,0.289469,156.273163,148.437500
337.000000,0.075780,0.289524,157.094666,148.437500
338.000000,-0.123732,0.289555,157.688751,148.437500
339.000000,-0.433719,0.289470,156.573334,148.437500
340.000000,-0.339494,0.289502,152.958069,144.531250
341.000000,0.014897,0.289728,150.329971,144.531250
342.000000,0.466335,0.289731,150.891953,144.531250
343.000000,0.433146,0.289902,154.757843,148.437500
344.000000,0.281548,0.290082,157.102081,148.437500
345.000000,-0.216964,0.290231,157.932190,148.437500
346.000000,-0.482547,0.290266,156.935684,148.437500
347.000000,-0.506046,0.290195,154.801956,148.437500
348.000000,-0.281128,0.290291,152.312820,144.531250
349.000000,0.120260,0.290337,150.988281,144.531250
350.000000,0.440623,0.290325,151.833221,144.531250
351.000000,0.181296,0.290796,153.737091,148.437500
352.000000,-0.089628,0.290966,154.238800,148.437500
353.000000,0.029850,0.290972,153.891327,148.437500
354.000000,-0.092374,0.290970,153.899719,148.437500
355.000000,-0.219100,0.291036,153.618668,148.437500
356.000000,0.087224,0.291019,152.945267,148.437500
357.000000,0.080434,0.291073,153.071259,148.437500
358.000000,-0.119154,0.291112,153.143936,148.437500
359.000000,-0.440356,0.291026,152.753189,148.437500
360.000000,-0.350023,0.291102,151.671280,148.437500
361.000000,0.018025,0.291415,150.859375,148.437500
362.000000,0.482586,0.291419,150.927277,148.437500
363.000000,0.451381,0.291640,151.930878,148.437500
364.000000,0.281929,0.291926,152.550644,148.437500
365.000000,-0.226577,0.292018,152.754852,148.437500
366.000000,-0.485828,0.292059,152.372528,148.437500
367.000000,-0.511311,0.292104,151.634445,148.437500
368.000000,-0.281128,0.292276,150.798035,148.437500
369.000000,0.124151,0.292349,150.315887,148.437500
370.000000,0.455501,0.292337,150.510162,148.437500
371.000000,0.185111,0.292759,151.046249,148.437500
372.000000,-0.091077,0.292893,151.151489,148.437500
373.000000,0.020695,0.292914,150.982803,148.437500
374.000000,-0.108244,0.292903,150.931122,148.437500
375.000000,-0.214065,0.293023,150.780502,148.437500
376.000000,0.098516,0.292983,150.502029,148.437500
377.000000,0.085317,0.293060,150.495865,148.437500
378.000000,-0.112440,0.293109,150.469696,148.437500
379.000000,-0.448138,0.293008,150.288834,148.437500
380.000000,-0.371462,0.293225,149.869278,148.437500
381.000000,0.012913,0.293876,149.540894,148.437500
382.000000,0.486400,0.293874,149.518204,148.437500
383.000000,0.458095,0.294131,149.823730,148.437500
384.000000,0.279946,0.294547,149.989838,148.437500
385.000000,-0.230468,0.294647,150.013885,148.437500
386.000000,-0.487201,0.294736,149.841827,148.437500
387.000000,-0.513066,0.294797,149.549271,148.437500
388.000000,-0.282502,0.295047,149.216568,148.437500
389.000000,0.125982,0.295167,149.006332,148.437500
390.000000,0.457027,0.295149,149.040115,148.437500
391.000000,0.184958,0.295625,149.188507,148.437500
392.000000,-0.095808,0.295748,149.182541,148.437500
393.000000,0.014363,0.295792,149.083984,148.437500
394.000000,-0.124189,0.295776,149.027969,148.437500
395.000000,-0.209945,0.295950,148.941284,148.437500
396.000000,0.108892,0.295889,148.810440,148.437500
397.000000,0.086004,0.295992,148.771225,148.437500
398.000000,-0.106870,0.296044,148.725861,148.437500
399.000000,-0.450656,0.295934,148.631226,148.437500
400.000000,-0.376955,0.296209,148.458099,148.437500
401.000000,0.010853,0.296961,148.312134,148.437500
402.000000,0.488003,0.296957,148.274994,148.437500
403.000000,0.460002,0.297224,148.344925,148.437500
404.000000,0.283303,0.297737,148.354263,148.437500
405.000000,-0.230545,0.297851,148.314316,148.437500
406.000000,-0.488575,0.297950,148.235443,148.437500
407.000000,-0.510929,0.298090,148.126938,148.437500
408.000000,-0.279602,0.298355,147.996735,148.437500
409.000000,0.125982,0.298480,147.898834,148.437500
410.000000,0.461681,0.298444,147.880508,148.437500
411.000000,0.186866,0.299036,147.892761,148.437500
412.000000,-0.092832,0.299204,147.855316,148.437500
413.000000,0.018711,0.299214,147.798264,148.437500
414.000000,-0.125639,0.299202,147.748596,148.437500
415.000000,-0.213378,0.299390,147.694611,148.437500
416.000000,0.107214,0.299329,147.635422,148.437500
417.000000,0.085012,0.299433,147.591476,148.437500
418.000000,-0.107252,0.299482,147.545288,148.437500
419.000000,-0.448024,0.299368,147.487213,148.437500
420.000000,-0.370241,0.299629,147.420609,148.437500
421.000000,0.014286,0.300292,147.364319,148.437500
422.000000,0.486934,0.300288,147.326477,148.437500
423.000000,0.452907,0.300571,147.305237,148.437500
424.000000,0.287041,0.301032,147.259552,148.437500
425.000000,-0.230697,0.301118,147.192993,148.437500
426.000000,-0.485409,0.301232,147.161560,148.437500
427.000000,-0.512112,0.301356,147.146606,148.437500
428.000000,-0.281510,0.301585,147.113098,148.437500
429.000000,0.123236,0.301658,147.062698,148.437500
430.000000,0.461528,0.301646,147.030655,148.437500
431.000000,0.192206,0.302035,146.998978,148.437500
432.000000,-0.085355,0.302138,146.947464,148.437500
433.000000,0.024815,0.302144,146.905762,148.437500
434.000000,-0.124113,0.302137,146.874908,148.437500
435.000000,-0.215057,0.302287,146.850449,148.437500
436.000000,0.106146,0.302214,146.815765,148.437500
437.000000,0.085927,0.302302,146.758835,148.437500
438.000000,-0.106794,0.302329,146.726807,148.437500
439.000000,-0.443294,0.302264,146.723129,148.437500
440.000000,-0.365053,0.302403,146.727783,148.437500
441.000000,0.018482,0.302701,146.714813,148.437500
442.000000,0.488613,0.302703,146.688507,148.437500
443.000000,0.454280,0.303054,146.628464,148.437500
444.000000,0.286812,0.303363,146.544479,148.437500
445.000000,-0.227951,0.303412,146.478088,148.437500
446.000000,-0.485637,0.303493,146.483414,148.437500
447.000000,-0.511578,0.303542,146.510468,148.437500
448.000000,-0.280060,0.303635,146.508804,148.437500
449.000000,0.124685,0.303625,146.480576,148.437500
450.000000,0.466869,0.303643,146.452667,148.437500
451.000000,0.196784,0.304035,146.424652,148.437500
452.000000,-0.086271,0.304131,146.400558,148.437500
453.000000,0.026951,0.304121,146.396729,148.437500
454.000000,-0.125105,0.304119,146.369705,148.437500
455.000000,-0.213226,0.304236,146.343323,148.437500
456.000000,0.109197,0.304194,146.313919,148.437500
457.000000,0.088598,0.304265,146.258804,148.437500
458.000000,-0.104810,0.304288,146.245026,148.437500
459.000000,-0.444743,0.304235,146.279449,148.437500
460.000000,-0.368944,0.304299,146.327438,148.437500
461.000000,0.020619,0.304522,146.344391,148.437500
462.000000,0.493343,0.304524,146.335144,148.437500
463.000000,0.457179,0.304696,146.270966,148.437500
464.000000,0.289483,0.304782,146.183243,148.437500
465.000000,-0.235733,0.304853,146.134293,148.437500
466.000000,-0.486477,0.304923,146.166626,148.437500
467.000000,-0.514630,0.304933,146.217072,148.437500
468.000000,-0.278992,0.304989,146.229523,148.437500
469.000000,0.123922,0.304969,146.215088,148.437500
470.000000,0.472591,0.304968,146.201904,148.437500
471.000000,0.196632,0.305228,146.199646,148.437500
472.000000,-0.093976,0.305300,146.207581,148.437500
473.000000,0.022068,0.305309,146.233978,148.437500
474.000000,-0.135023,0.305310,146.217896,148.437500
475.000000,-0.208190,0.305417,146.196701,148.437500
476.000000,0.119116,0.305376,146.171509,148.437500
477.000000,0.088674,0.305449,146.126923,148.437500
478.000000,-0.100233,0.305459,146.135071,148.437500
479.000000,-0.452525,0.305416,146.198990,148.437500
480.000000,-0.384012,0.305481,146.268539,148.437500
481.000000,0.022679,0.305636,146.300034,148.437500
482.000000,0.503109,0.305642,146.307877,148.437500
483.000000,0.470150,0.305912,146.261383,148.437500
484.000000,0.287804,0.306095,146.191162,148.437500
485.000000,-0.240997,0.306168,146.165512,148.437500
486.000000,-0.486782,0.306249,146.212540,148.437500
487.000000,-0.518292,0.306242,146.268921,148.437500
488.000000,-0.281205,0.306330,146.281876,148.437500
489.000000,0.124456,0.306318,146.274597,148.437500
490.000000,0.479686,0.306312,146.278931,148.437500
491.000000,0.208000,0.306659,146.304321,148.437500
492.000000,-0.097486,0.306806,146.335449,148.437500
493.000000,0.014744,0.306811,146.376099,148.437500
494.000000,-0.153258,0.306812,146.369675,148.437500
495.000000,-0.205749,0.306943,146.352737,148.437500
496.000000,0.126440,0.306915,146.331558,148.437500
497.000000,0.092107,0.306982,146.301590,148.437500
498.000000,-0.093748,0.307000,146.324402,148.437500
499.000000,-0.455577,0.306957,146.396225,148.437500
500.000000,-0.400721,0.307029,146.461945,148.437500
501.000000,0.013523,0.307330,146.490585,148.437500
502.000000,0.499905,0.307331,146.506073,148.437500
503.000000,0.469005,0.307522,146.481476,148.437500
504.000000,0.292382,0.307658,146.435577,148.437500
505.000000,-0.240234,0.307743,146.426895,148.437500
506.000000,-0.488231,0.307817,146.470566,148.437500
507.000000,-0.520275,0.307812,146.514618,148.437500
508.000000,-0.284409,0.307968,146.518524,148.437500
509.000000,0.124151,0.308013,146.510376,148.437500
510.000000,0.479877,0.308005,146.522202,148.437500
511.000000,0.202964,0.308283,146.559235,148.437500
512.000000,-0.098249,0.308385,146.591675,148.437500
513.000000,0.013218,0.308402,146.624573,148.437500
514.000000,-0.153410,0.308399,146.621185,148.437500
515.000000,-0.207275,0.308524,146.607483,148.437500
516.000000,0.124609,0.308483,146.588638,148.437500
517.000000,0.092412,0.308548,146.569016,148.437500
518.000000,-0.096113,0.308569,146.589935,148.437500
519.000000,-0.454395,0.308533,146.642395,148.437500
520.000000,-0.394427,0.308626,146.681900,148.437500
521.000000,0.017948,0.308925,146.694199,148.437500
522.000000,0.494144,0.308927,146.703873,148.437500
523.000000,0.462863,0.309042,146.693588,148.437500
524.000000,0.291695,0.309189,146.665955,148.437500
525.000000,-0.240463,0.309233,146.659927,148.437500
526.000000,-0.488346,0.309307,146.684647,148.437500
527.000000,-0.517109,0.309353,146.706909,148.437500
528.000000,-0.284333,0.309437,146.701035,148.437500
529.000000,0.123312,0.309462,146.688492,148.437500
530.000000,0.478199,0.309463,146.695831,148.437500
531.000000,0.199226,0.309716,146.720398,148.437500
532.000000,-0.095121,0.309760,146.733566,148.437500
533.000000,0.017414,0.309788,146.743698,148.437500
534.000000,-0.148909,0.309783,146.739670,148.437500
535.000000,-0.208190,0.309893,146.731644,148.437500
536.000000,0.123312,0.309846,146.717773,148.437500
537.000000,0.094320,0.309909,146.703979,148.437500
538.000000,-0.094739,0.309934,146.711060,148.437500
539.000000,-0.452640,0.309894,146.730972,148.437500
540.000000,-0.398775,0.310030,146.740051,148.437500
541.000000,0.016804,0.310445,146.736313,148.437500
542.000000,0.498264,0.310444,146.734985,148.437500
543.000000,0.465991,0.310597,146.731186,148.437500
544.000000,0.291543,0.310771,146.717484,148.437500
545.000000,-0.239014,0.310815,146.707031,148.437500
546.000000,-0.487354,0.310898,146.711777,148.437500
547.000000,-0.522297,0.310925,146.714966,148.437500
548.000000,-0.284333,0.311103,146.693985,148.437500
549.000000,0.123922,0.311141,146.680374,148.437500
550.000000,0.481022,0.311138,146.680878,148.437500
551.000000,0.203040,0.311354,146.694641,148.437500
552.000000,-0.096494,0.311394,146.690842,148.437500
553.000000,0.013294,0.311424,146.677231,148.437500
554.000000,-0.163405,0.311415,146.675079,148.437500
555.000000,-0.205367,0.311593,146.678467,148.437500
556.000000,0.130941,0.311540,146.674973,148.437500
557.000000,0.094472,0.311624,146.660477,148.437500
558.000000,-0.090162,0.311641,146.655182,148.437500
559.000000,-0.455768,0.311595,146.657623,148.437500
560.000000,-0.406100,0.311754,146.636292,148.437500
561.000000,0.015049,0.312216,146.604874,148.437500
562.000000,0.500782,0.312213,146.610031,148.437500
563.000000,0.469120,0.312331,146.629791,148.437500
564.000000,0.291543,0.312508,146.615158,148.437500
565.000000,-0.242065,0.312527,146.581436,148.437500
566.000000,-0.489719,0.312576,146.587830,148.437500
567.000000,-0.521382,0.312626,146.606277,148.437500
568.000000,-0.288529,0.312738,146.608322,148.437500
569.000000,0.122091,0.312825,146.604843,148.437500
570.000000,0.486286,0.312817,146.602127,148.437500
571.000000,0.209602,0.313027,146.590530,148.437500
572.000000,-0.098173,0.313111,146.561234,148.437500
573.000000,0.009480,0.313124,146.539841,148.437500
574.000000,-0.175154,0.313118,146.546967,148.437500
575.000000,-0.206893,0.313317,146.562988,148.437500
576.000000,0.132696,0.313308,146.566086,148.437500
577.000000,0.094778,0.313363,146.552734,148.437500
578.000000,-0.087415,0.313380,146.543762,148.437500
579.000000,-0.456607,0.313342,146.544632,148.437500
580.000000,-0.410296,0.313401,146.533875,148.437500
581.000000,0.018406,0.313734,146.518219,148.437500
582.000000,0.503071,0.313731,146.518478,148.437500
583.000000,0.463855,0.313731,146.527542,148.437500
584.000000,0.298791,0.313637,146.508240,148.437500
585.000000,-0.228943,0.313740,146.469879,148.437500
586.000000,-0.484760,0.313650,146.480560,148.437500
587.000000,-0.513066,0.313618,146.515152,148.437500
588.000000,-0.280900,0.313532,146.537247,148.437500
589.000000,0.123922,0.313530,146.545380,148.437500
590.000000,0.479801,0.313527,146.546768,148.437500
591.000000,0.211814,0.313529,146.526840,148.437500
592.000000,-0.071241,0.313555,146.489380,148.437500
593.000000,0.050603,0.313484,146.472076,148.437500
594.000000,-0.120756,0.313521,146.490402,148.437500
595.000000,-0.215362,0.313379,146.516846,148.437500
596.000000,0.109884,0.313444,146.524658,148.437500
597.000000,0.092718,0.313382,146.514877,148.437500
598.000000,-0.103742,0.313383,146.510559,148.437500
599.000000,-0.432574,0.313415,146.521729,148.437500
600.000000,-0.341859,0.313089,146.525314,148.437500
601.000000,0.042363,0.312390,146.524506,148.437500
602.000000,0.490787,0.312416,146.527557,148.437500
603.000000,0.437228,0.312271,146.534866,148.437500
604.000000,0.290475,0.311810,146.515793,148.437500
605.000000,-0.228714,0.311792,146.480942,148.437500
606.000000,-0.478733,0.311705,146.500290,148.437500
607.000000,-0.503376,0.311558,146.548523,148.437500
608.000000,-0.264496,0.311280,146.581467,148.437500
609.000000,0.137274,0.311104,146.596329,148.437500
610.000000,0.450084,0.311160,146.604782,148.437500
611.000000,0.168784,0.310714,146.590958,148.437500
612.000000,-0.082761,0.310510,146.559433,148.437500
613.000000,0.040455,0.310464,146.551224,148.437500
614.000000,-0.115721,0.310488,146.576920,148.437500
615.000000,-0.217803,0.310325,146.607071,148.437500
616.000000,0.099813,0.310397,146.615356,148.437500
617.000000,0.077001,0.310307,146.609375,148.437500
618.000000,-0.124723,0.310265,146.613159,148.437500
619.000000,-0.439746,0.310367,146.635757,148.437500
620.000000,-0.330339,0.310156,146.649002,148.437500
621.000000,0.039769,0.309406,146.655060,148.437500
622.000000,0.484569,0.309426,146.661972,148.437500
623.000000,0.424983,0.309275,146.671722,148.437500
624.000000,0.284905,0.308731,146.656174,148.437500
625.000000,-0.236191,0.308667,146.629364,148.437500
626.000000,-0.477970,0.308634,146.654449,148.437500
627.000000,-0.501621,0.308472,146.705017,148.437500
628.000000,-0.260605,0.308216,146.736084,148.437500
629.000000,0.140631,0.308006,146.749664,148.437500
630.000000,0.448711,0.308080,146.761963,148.437500
631.000000,0.163291,0.307636,146.758774,148.437500
632.000000,-0.072461,0.307425,146.738495,148.437500
633.000000,0.053960,0.307363,146.737534,148.437500
634.000000,-0.092908,0.307405,146.762405,148.437500
635.000000,-0.218261,0.307185,146.787537,148.437500
636.000000,0.089666,0.307255,146.792114,148.437500
637.000000,0.073415,0.307138,146.786850,148.437500
638.000000,-0.133497,0.307081,146.794724,148.437500
639.000000,-0.431201,0.307225,146.821747,148.437500
640.000000,-0.307603,0.306917,146.834290,148.437500
641.000000,0.047246,0.305866,146.836304,148.437500
642.000000,0.483501,0.305897,146.844681,148.437500
643.000000,0.412547,0.305660,146.857483,148.437500
644.000000,0.277276,0.304891,146.845825,148.437500
645.000000,-0.237335,0.304758,146.826172,148.437500
646.000000,-0.475071,0.304745,146.849152,148.437500
647.000000,-0.498569,0.304551,146.887970,148.437500
648.000000,-0.253052,0.304153,146.905487,148.437500
649.000000,0.143378,0.303877,146.911041,148.437500
650.000000,0.432155,0.303962,146.920837,148.437500
651.000000,0.147116,0.303227,146.925491,148.437500
652.000000,-0.076047,0.302904,146.914581,148.437500
653.000000,0.050298,0.302846,146.914307,148.437500
654.000000,-0.096952,0.302885,146.930267,148.437500
655.000000,-0.221313,0.302599,146.944962,148.437500
656.000000,0.085698,0.302712,146.944931,148.437500
657.000000,0.066854,0.302550,146.938339,148.437500
658.000000,-0.139448,0.302476,146.944366,148.437500
659.000000,-0.433337,0.302663,146.964035,148.437500
660.000000,-0.306077,0.302333,146.965775,148.437500
661.000000,0.044499,0.301153,146.956055,148.437500
662.000000,0.473125,0.301182,146.963959,148.437500
663.000000,0.398127,0.300735,146.980148,148.437500
664.000000,0.277810,0.299709,146.972885,148.437500
665.000000,-0.233291,0.299579,146.957428,148.437500
666.000000,-0.471714,0.299509,146.971573,148.437500
667.000000,-0.493534,0.299220,146.992172,148.437500
668.000000,-0.248779,0.298747,146.993423,148.437500
669.000000,0.145666,0.298390,146.990372,148.437500
670.000000,0.426509,0.298495,146.994171,148.437500
671.000000,0.144369,0.297580,147.002060,148.437500
672.000000,-0.066587,0.297192,146.998230,148.437500
673.000000,0.068990,0.297104,146.994949,148.437500
674.000000,-0.069028,0.297183,147.000275,148.437500
675.000000,-0.214675,0.296746,147.004761,148.437500
676.000000,0.078756,0.296802,146.995285,148.437500
677.000000,0.057927,0.296610,146.986923,148.437500
678.000000,-0.156462,0.296515,146.988861,148.437500
679.000000,-0.427157,0.296798,147.003540,148.437500
680.000000,-0.275635,0.296360,146.997849,148.437500
681.000000,0.044881,0.294797,146.979050,148.437500
682.000000,0.465648,0.294826,146.986893,148.437500
683.000000,0.375772,0.294210,147.004013,148.437500
684.000000,0.253624,0.292951,146.999084,148.437500
685.000000,-0.247024,0.292524,146.981415,148.437500
686.000000,-0.462558,0.292672,146.988571,148.437500
687.000000,-0.464694,0.292312,147.001831,148.437500
688.000000,-0.196670,0.291502,146.988052,148.437500
689.000000,0.181754,0.290811,146.969421,148.437500
690.000000,0.357462,0.291115,146.976349,148.437500
691.000000,0.069295,0.289350,146.994644,148.437500
692.000000,-0.075895,0.288657,146.987717,148.437500
693.000000,0.084096,0.288669,146.970276,148.437500
694.000000,-0.001888,0.288747,146.976425,148.437500
695.000000,-0.132658,0.288495,146.989822,148.437500
696.000000,0.096380,0.287995,146.992615,148.437500
697.000000,-0.009823,0.287947,146.988510,148.437500
698.000000,-0.205215,0.287799,146.988235,148.437500
699.000000,-0.379625,0.288343,146.988846,148.437500
700.000000,-0.142424,0.287597,146.969040,148.437500
701.000000,0.100423,0.285913,146.947006,148.437500
702.000000,0.511425,0.286058,146.959183,148.437500
703.000000,0.368524,0.286419,146.980759,148.437500
704.000000,0.257515,0.285451,146.977921,148.437500
705.000000,-0.230240,0.285134,146.959961,148.437500
706.000000,-0.430896,0.285147,146.964523,148.437500
707.000000,-0.435321,0.284383,146.977295,148.437500
708.000000,-0.170272,0.283257,146.970261,148.437500
709.000000,0.198997,0.282533,146.960617,148.437500
710.000000,0.374781,0.282900,146.964020,148.437500
711.000000,0.116598,0.281800,146.974396,148.437500
712.000000,-0.029736,0.281536,146.962997,148.437500
713.000000,0.105459,0.281430,146.941589,148.437500
714.000000,0.000248,0.281598,146.950043,148.437500
715.000000,-0.135176,0.281360,146.973328,148.437500
716.000000,0.081960,0.280842,146.987640,148.437500
717.000000,-0.011501,0.280784,146.989212,148.437500
718.000000,-0.206207,0.280681,146.990723,148.437500
719.000000,-0.400607,0.281161,146.986465,148.437500
720.000000,-0.174392,0.280575,146.962494,148.437500
721.000000,0.089971,0.279169,146.944382,148.437500
722.000000,0.500286,0.279286,146.962158,148.437500
723.000000,0.359979,0.279562,146.986633,148.437500
724.000000,0.245079,0.278648,146.984070,148.437500
725.000000,-0.240234,0.278269,146.966766,148.437500
726.000000,-0.442950,0.278304,146.973846,148.437500
727.000000,-0.445850,0.277724,146.993942,148.437500
728.000000,-0.181411,0.276771,146.996658,148.437500
729.000000,0.166266,0.276138,146.995895,148.437500
730.000000,0.304055,0.276280,146.999832,148.437500
731.000000,0.053120,0.274303,147.006760,148.437500
732.000000,-0.078717,0.273868,146.993561,148.437500
733.000000,0.067388,0.273885,146.973190,148.437500
734.000000,-0.037289,0.273915,146.986420,148.437500
735.000000,-0.155470,0.273782,147.017960,148.437500
736.000000,0.069829,0.273354,147.038254,148.437500
737.000000,-0.015774,0.273296,147.042831,148.437500
738.000000,-0.196441,0.273202,147.047882,148.437500
739.000000,-0.420977,0.273581,147.046524,148.437500
740.000000,-0.233978,0.273422,147.025375,148.437500
741.000000,0.033589,0.272692,147.012268,148.437500
742.000000,0.441157,0.272672,147.033340,148.437500
743.000000,0.341058,0.271953,147.058624,148.437500
744.000000,0.282235,0.270961,147.055649,148.437500
745.000000,-0.199187,0.271012,147.040054,148.437500
746.000000,-0.440814,0.270704,147.050552,148.437500
747.000000,-0.456912,0.270124,147.076157,148.437500
748.000000,-0.222305,0.269386,147.083511,148.437500
749.000000,0.150015,0.269115,147.085709,148.437500
750.000000,0.376764,0.269151,147.090714,148.437500
751.000000,0.114614,0.268318,147.098160,148.437500
752.000000,-0.048657,0.268159,147.085876,148.437500
753.000000,0.086843,0.268095,147.068542,148.437500
754.000000,-0.028210,0.268189,147.084183,148.437500
755.000000,-0.149977,0.268028,147.116287,148.437500
756.000000,0.083028,0.267534,147.134369,148.437500
757.000000,-0.002041,0.267525,147.137314,148.437500
758.000000,-0.166915,0.267442,147.143768,148.437500
759.000000,-0.404574,0.267599,147.147003,148.437500
760.000000,-0.220703,0.267148,147.130356,148.437500
761.000000,0.052663,0.266305,147.120438,148.437500
762.000000,0.466869,0.266320,147.139740,148.437500
763.000000,0.360361,0.266210,147.161087,148.437500
764.000000,0.290932,0.265671,147.155762,148.437500
765.000000,-0.202850,0.265812,147.140793,148.437500
766.000000,-0.445850,0.265562,147.151810,148.437500
767.000000,-0.464389,0.265115,147.176834,148.437500
768.000000,-0.227722,0.264588,147.181290,148.437500
769.000000,0.141852,0.264398,147.179581,148.437500
770.000000,0.368601,0.264377,147.184479,148.437500
771.000000,0.107137,0.263505,147.192947,148.437500
772.000000,-0.053922,0.263327,147.182556,148.437500
773.000000,0.086309,0.263298,147.167557,148.437500
774.000000,-0.033780,0.263349,147.180756,148.437500
775.000000,-0.162337,0.263280,147.204483,148.437500
776.000000,0.073262,0.262905,147.212692,148.437500
777.000000,-0.006466,0.262890,147.209579,148.437500
778.000000,-0.172255,0.262827,147.214325,148.437500
779.000000,-0.402361,0.262925,147.220245,148.437500
780.000000,-0.214370,0.262534,147.206635,148.437500
781.000000,0.053273,0.261961,147.197678,148.437500
782.000000,0.457332,0.261977,147.210739,148.437500
783.000000,0.346628,0.261831,147.223221,148.437500
784.000000,0.295281,0.261428,147.212906,148.437500
785.000000,-0.193770,0.261865,147.195602,148.437500
786.000000,-0.437152,0.261417,147.204514,148.437500
787.000000,-0.458820,0.260979,147.225143,148.437500
788.000000,-0.225280,0.260875,147.223129,148.437500
789.000000,0.142691,0.261106,147.213058,148.437500
790.000000,0.368830,0.260864,147.216644,148.437500
791.000000,0.112097,0.261022,147.225449,148.437500
792.000000,-0.049268,0.261170,147.215973,148.437500
793.000000,0.094396,0.261107,147.203354,148.437500
794.000000,-0.021878,0.261142,147.210297,148.437500
795.000000,-0.145247,0.261151,147.221237,148.437500
796.000000,0.083104,0.261218,147.216629,148.437500
797.000000,-0.016766,0.261172,147.205399,148.437500
798.000000,-0.177520,0.261176,147.205963,148.437500
799.000000,-0.401980,0.260973,147.216904,148.437500
800.000000,-0.211776,0.261307,147.211578,148.437500
801.000000,0.052281,0.261777,147.202011,148.437500
802.000000,0.448558,0.261637,147.206253,148.437500
803.000000,0.329919,0.260481,147.207764,148.437500
804.000000,0.288109,0.259963,147.187912,148.437500
805.000000,-0.194152,0.260283,147.168015,148.437500
806.000000,-0.439212,0.259989,147.175034,148.437500
807.000000,-0.455234,0.260128,147.195084,148.437500
808.000000,-0.220092,0.260469,147.189713,148.437500
809.000000,0.143149,0.260842,147.173172,148.437500
810.000000,0.328622,0.260475,147.176315,148.437500
811.000000,0.074788,0.259851,147.185211,148.437500
812.000000,-0.069028,0.259697,147.177338,148.437500
813.000000,0.081884,0.259772,147.163162,148.437500
814.000000,-0.027142,0.259687,147.165649,148.437500
815.000000,-0.151198,0.259701,147.172165,148.437500
816.000000,0.071736,0.259790,147.157333,148.437500
817.000000,-0.030652,0.259759,147.135590,148.437500
818.000000,-0.198119,0.259775,147.138519,148.437500
819.000000,-0.401827,0.259712,147.155960,148.437500
820.000000,-0.202239,0.259731,147.147064,148.437500
821.000000,0.051366,0.259933,147.125763,148.437500
822.000000,0.450084,0.259828,147.130829,148.437500
823.000000,0.330529,0.258908,147.142090,148.437500
824.000000,0.270943,0.258515,147.135101,148.437500
825.000000,-0.220398,0.258773,147.119995,148.437500
826.000000,-0.444171,0.258596,147.123062,148.437500
827.000000,-0.448291,0.258617,147.129715,148.437500
828.000000,-0.189193,0.258659,147.111526,148.437500
829.000000,0.195487,0.258715,147.091492,148.437500
830.000000,0.412089,0.258919,147.098373,148.437500
831.000000,0.173819,0.260409,147.112564,148.437500
832.000000,0.046635,0.260934,147.106491,148.437500
833.000000,0.192130,0.260857,147.090958,148.437500
834.000000,0.063420,0.261477,147.091385,148.437500
835.000000,-0.078183,0.261528,147.097687,148.437500
836.000000,0.092947,0.261182,147.087860,148.437500
837.000000,-0.071775,0.261254,147.072739,148.437500
838.000000,-0.270371,0.261348,147.072540,148.437500
839.000000,-0.289826,0.262007,147.082932,148.437500
840.000000,0.112020,0.260222,147.069641,148.437500
841.000000,0.290627,0.259410,147.044556,148.437500
842.000000,0.620909,0.261011,147.051147,148.437500
843.000000,0.332971,0.264643,147.069702,148.437500
844.000000,0.165274,0.264540,147.070969,148.437500
845.000000,-0.309663,0.263549,147.059631,148.437500
846.000000,-0.442645,0.264613,147.063446,148.437500
847.000000,-0.421511,0.264644,147.065628,148.437500
848.000000,-0.116102,0.264056,147.043182,148.437500
849.000000,0.195411,0.263374,147.024918,148.437500
850.000000,0.257591,0.263672,147.035492,148.437500
851.000000,0.016270,0.262234,147.051773,148.437500
852.000000,-0.130140,0.261989,147.045380,148.437500
853.000000,0.001774,0.262267,147.029053,148.437500
854.000000,-0.129759,0.262123,147.030624,148.437500
855.000000,-0.240005,0.262429,147.041992,148.437500
856.000000,0.001698,0.263097,147.039124,148.437500
857.000000,-0.034695,0.262966,147.030838,148.437500
858.000000,-0.255417,0.262989,147.030304,148.437500
859.000000,-0.492237,0.263698,147.035812,148.437500
860.000000,-0.339647,0.265185,147.018127,148.437500
861.000000,-0.043088,0.266439,146.991516,148.437500
862.000000,0.327935,0.266421,147.001358,148.437500
863.000000,0.239433,0.264341,147.027649,148.437500
864.000000,0.233177,0.262965,147.035278,148.437500
865.000000,-0.186751,0.262389,147.027069,148.437500
866.000000,-0.448978,0.262270,147.031525,148.437500
867.000000,-0.446536,0.262323,147.032089,148.437500
868.000000,-0.226806,0.262013,147.008636,148.437500
869.000000,0.127127,0.262005,146.992538,148.437500
870.000000,0.291238,0.261929,147.005173,148.437500
871.000000,0.062810,0.260953,147.022919,148.437500
872.000000,-0.048962,0.260809,147.016144,148.437500
873.000000,0.116827,0.260799,146.999329,148.437500
874.000000,0.015126,0.260918,147.002686,148.437500
875.000000,-0.083524,0.260900,147.017868,148.437500
876.000000,0.122778,0.260529,147.018600,148.437500
877.000000,-0.071927,0.260715,147.013016,148.437500
878.000000,-0.216735,0.260813,147.012558,148.437500
879.000000,-0.352388,0.261145,147.015732,148.437500
880.000000,-0.140364,0.260422,146.995148,148.437500
881.000000,0.073415,0.259917,146.968399,148.437500
882.000000,0.467784,0.259966,146.980362,148.437500
883.000000,0.322747,0.260152,147.009735,148.437500
884.000000,0.299401,0.259845,147.018295,148.437500
885.000000,-0.162947,0.259892,147.010544,148.437500
886.000000,-0.394732,0.259680,147.014420,148.437500
887.000000,-0.407931,0.259000,147.014648,148.437500
888.000000,-0.173018,0.258147,146.991608,148.437500
889.000000,0.161383,0.257743,146.977112,148.437500
890.000000,0.298562,0.257854,146.988831,148.437500
891.000000,0.071660,0.256943,147.005203,148.437500
892.000000,-0.034161,0.256798,146.997452,148.437500
893.000000,0.126593,0.256774,146.979874,148.437500
894.000000,0.037251,0.256912,146.983658,148.437500
895.000000,-0.040799,0.256930,146.999054,148.437500
896.000000,0.133764,0.256551,146.999115,148.437500
897.000000,-0.112440,0.256765,146.992950,148.437500
898.000000,-0.257706,0.257006,146.992523,148.437500
899.000000,-0.310426,0.257684,146.993408,148.437500
900.000000,-0.114500,0.256415,146.970230,148.437500
901.000000,0.067769,0.255796,146.943512,148.437500
902.000000,0.431621,0.255832,146.955750,148.437500
903.000000,0.278878,0.255540,146.983826,148.437500
904.000000,0.282769,0.254932,146.989395,148.437500
905.000000,-0.143645,0.254872,146.980347,148.437500
906.000000,-0.377184,0.254537,146.982239,148.437500
907.000000,-0.378023,0.253540,146.981018,148.437500
908.000000,-0.150587,0.252268,146.958252,148.437500
909.000000,0.153372,0.251757,146.945618,148.437500
910.000000,0.232338,0.251817,146.955276,148.437500
911.000000,0.045644,0.250743,146.968536,148.437500
912.000000,-0.043088,0.250673,146.959076,148.437500
913.000000,0.133993,0.250615,146.941422,148.437500
914.000000,0.051366,0.250839,146.945755,148.437500
915.000000,-0.017834,0.250877,146.959732,148.437500
916.000000,0.146658,0.250427,146.955154,148.437500
917.000000,-0.144789,0.250754,146.941666,148.437500
918.000000,-0.291581,0.251153,146.942535,148.437500
919.000000,-0.291047,0.252062,146.948700,148.437500
920.000000,-0.102216,0.250535,146.933167,148.437500
921.000000,0.074941,0.249927,146.918076,148.437500
922.000000,0.422007,0.249986,146.926941,148.437500
923.000000,0.262856,0.249496,146.934967,148.437500
924.000000,0.268654,0.248690,146.920547,148.437500
925.000000,-0.144408,0.248665,146.901642,148.437500
926.000000,-0.372187,0.248107,146.908051,148.437500
927.000000,-0.364405,0.246920,146.924255,148.437500
928.000000,-0.135634,0.245535,146.918671,148.437500
929.000000,0.146963,0.245181,146.909195,148.437500
930.000000,0.201438,0.244842,146.911652,148.437500
931.000000,0.029698,0.242188,146.911499,148.437500
932.000000,-0.051328,0.241582,146.893219,148.437500
933.000000,0.131781,0.241591,146.876709,148.437500
934.000000,0.056859,0.241186,146.881561,148.437500
935.000000,-0.008602,0.241170,146.897049,148.437500
936.000000,0.144293,0.241045,146.891388,148.437500
937.000000,-0.158370,0.241297,146.875275,148.437500
938.000000,-0.303712,0.241710,146.877625,148.437500
939.000000,-0.280823,0.242106,146.885727,148.437500
940.000000,-0.106031,0.242000,146.871628,148.437500
941.000000,0.068608,0.241973,146.849106,148.437500
942.000000,0.411936,0.240319,146.854218,148.437500
943.000000,0.254387,0.235785,146.869797,148.437500
944.000000,0.269341,0.234805,146.860413,148.437500
945.000000,-0.143339,0.235766,146.840698,148.437500
946.000000,-0.374323,0.234162,146.843872,148.437500
947.000000,-0.366007,0.232968,146.854950,148.437500
948.000000,-0.141890,0.232028,146.839996,148.437500
949.000000,0.142004,0.232171,146.819717,148.437500
950.000000,0.197242,0.231782,146.824860,148.437500
951.000000,0.024586,0.231190,146.839127,148.437500
952.000000,-0.057736,0.231197,146.835480,148.437500
953.000000,0.129950,0.230903,146.821091,148.437500
954.000000,0.051823,0.231268,146.823349,148.437500
955.000000,-0.021344,0.230962,146.829269,148.437500
956.000000,0.132315,0.229721,146.815353,148.437500
957.000000,-0.158980,0.230102,146.798294,148.437500
958.000000,-0.306840,0.230624,146.803085,148.437500
959.000000,-0.295319,0.231250,146.811203,148.437500
960.000000,-0.115339,0.227873,146.795792,148.437500
961.000000,0.060674,0.225622,146.773727,148.437500
962.000000,0.405528,0.225662,146.778458,148.437500
963.000000,0.246147,0.226920,146.793488,148.437500
964.000000,0.270104,0.226992,146.785507,148.437500
965.000000,-0.139525,0.227401,146.768112,148.437500
966.000000,-0.370432,0.227062,146.767822,148.437500
967.000000,-0.362650,0.225640,146.774368,148.437500
968.000000,-0.140211,0.224131,146.756500,148.437500
969.000000,0.136053,0.223421,146.731796,148.437500
970.000000,0.188544,0.223473,146.735580,148.437500
971.000000,0.013600,0.222368,146.751282,148.437500
972.000000,-0.060254,0.222284,146.750473,148.437500
973.000000,0.130331,0.222311,146.737030,148.437500
974.000000,0.056325,0.222386,146.736740,148.437500
975.000000,-0.002270,0.222453,146.735199,148.437500
976.000000,0.140249,0.222296,146.712509,148.437500
977.000000,-0.168517,0.222399,146.691177,148.437500
978.000000,-0.318666,0.222921,146.696304,148.437500
979.000000,-0.273423,0.224141,146.705490,148.437500
980.000000,-0.119993,0.223036,146.689713,148.437500
981.000000,0.059224,0.222917,146.665436,148.437500
982.000000,0.380503,0.222875,146.665405,148.437500
983.000000,0.221199,0.221208,146.675903,148.437500
984.000000,0.248436,0.219956,146.666443,148.437500
985.000000,-0.124418,0.219320,146.648895,148.437500
986.000000,-0.369135,0.219068,146.644806,148.437500
987.000000,-0.352579,0.218621,146.645660,148.437500
988.000000,-0.136931,0.217656,146.622055,148.437500
989.000000,0.125753,0.217399,146.592117,148.437500
990.000000,0.162909,0.217164,146.593597,148.437500
991.000000,0.006962,0.215717,146.609406,148.437500
992.000000,-0.067044,0.215599,146.608337,148.437500
993.000000,0.131704,0.215677,146.593338,148.437500
994.000000,0.051823,0.215707,146.588898,148.437500
995.000000,0.004597,0.215737,146.580948,148.437500
996.000000,0.149023,0.215699,146.551437,148.437500
997.000000,-0.176833,0.215799,146.525742,148.437500
998.000000,-0.325189,0.216230,146.529114,148.437500
999.000000,-0.268235,0.217138,146.537842,148.437500
1000.000000,-0.114500,0.216575,146.520264,148.437500
1001.000000,0.065099,0.216575,146.493149,148.437500
1002.000000,0.395686,0.216567,146.489410,148.437500
1003.000000,0.232948,0.215879,146.495651,148.437500
1004.000000,0.252480,0.215334,146.482712,148.437500
1005.000000,-0.137541,0.214958,146.462173,148.437500
1006.000000,-0.372950,0.214918,146.455582,148.437500
1007.000000,-0.354028,0.214844,146.453842,148.437500
1008.000000,-0.130217,0.214435,146.426605,148.437500
1009.000000,0.133688,0.214301,146.393875,148.437500
1010.000000,0.169623,0.214169,146.393921,148.437500
1011.000000,0.010624,0.213580,146.408554,148.437500
1012.000000,-0.059873,0.213534,146.405106,148.437500
1013.000000,0.132010,0.213574,146.388718,148.437500
1014.000000,0.051061,0.213562,146.381638,148.437500
1015.000000,0.001545,0.213561,146.370956,148.437500
1016.000000,0.145514,0.213554,146.338806,148.437500
1017.000000,-0.181945,0.213546,146.311996,148.437500
1018.000000,-0.322709,0.213830,146.314362,148.437500
1019.000000,-0.262894,0.214277,146.323746,148.437500
1020.000000,-0.102064,0.213912,146.307419,148.437500
1021.000000,0.069448,0.213912,146.281189,148.437500
1022.000000,0.398585,0.213893,146.276733,148.437500
1023.000000,0.234703,0.213443,146.279861,148.437500
1024.000000,0.251259,0.213115,146.264420,148.437500
1025.000000,-0.135634,0.212903,146.243301,148.437500
1026.000000,-0.362535,0.212845,146.239319,148.437500
1027.000000,-0.344911,0.212678,146.239120,148.437500
1028.000000,-0.121519,0.212353,146.213348,148.437500
1029.000000,0.141394,0.212268,146.183044,148.437500
1030.000000,0.169776,0.212230,146.185455,148.437500
1031.000000,0.016728,0.211953,146.200882,148.437500
1032.000000,-0.058118,0.211938,146.197525,148.437500
1033.000000,0.135672,0.211956,146.183823,148.437500
1034.000000,0.056096,0.211981,146.178070,148.437500
1035.000000,0.016499,0.211978,146.168884,148.437500
1036.000000,0.153830,0.211983,146.139969,148.437500
1037.000000,-0.193313,0.212050,146.119888,148.437500
1038.000000,-0.328126,0.212340,146.126297,148.437500
1039.000000,-0.245727,0.212703,146.139465,148.437500
1040.000000,-0.104353,0.212268,146.127640,148.437500
1041.000000,0.075551,0.212260,146.107071,148.437500
1042.000000,0.387140,0.212283,146.108276,148.437500
1043.000000,0.226539,0.211816,146.115585,148.437500
1044.000000,0.246681,0.211500,146.102554,148.437500
1045.000000,-0.135176,0.211223,146.082016,148.437500
1046.000000,-0.363756,0.211169,146.085602,148.437500
1047.000000,-0.341020,0.210984,146.096222,148.437500
1048.000000,-0.118849,0.210565,146.083389,148.437500
1049.000000,0.132162,0.210423,146.069656,148.437500
1050.000000,0.154898,0.210358,146.076492,148.437500
1051.000000,0.008564,0.210004,146.082748,148.437500
1052.000000,-0.061627,0.209991,146.070221,148.437500
1053.000000,0.135672,0.210002,146.055191,148.437500
1054.000000,0.055943,0.210038,146.061127,148.437500
1055.000000,0.011158,0.210049,146.074860,148.437500
1056.000000,0.150092,0.210041,146.068512,148.437500
1057.000000,-0.193465,0.210160,146.058853,148.437500
1058.000000,-0.333619,0.210449,146.066681,148.437500
1059.000000,-0.254578,0.210857,146.075119,148.437500
1060.000000,-0.109312,0.210325,146.062622,148.437500
1061.000000,0.074636,0.210292,146.050232,148.437500
1062.000000,0.388361,0.210337,146.060074,148.437500
1063.000000,0.232033,0.210013,146.077881,148.437500
1064.000000,0.244087,0.209852,146.073181,148.437500
1065.000000,-0.148375,0.209533,146.059357,148.437500
1066.000000,-0.365969,0.209594,146.070694,148.437500
1067.000000,-0.345903,0.209516,146.088898,148.437500
1068.000000,-0.119917,0.209232,146.084030,148.437500
1069.000000,0.133688,0.209106,146.071152,148.437500
1070.000000,0.153906,0.209091,146.082260,148.437500
1071.000000,0.000477,0.208807,146.102402,148.437500
1072.000000,-0.069486,0.208803,146.101242,148.437500
1073.000000,0.131399,0.208831,146.092346,148.437500
1074.000000,0.052739,0.208838,146.102570,148.437500
1075.000000,0.007801,0.208829,146.119217,148.437500
1076.000000,0.139487,0.208830,146.111694,148.437500
1077.000000,-0.194915,0.208825,146.098770,148.437500
1078.000000,-0.337053,0.209054,146.114792,148.437500
1079.000000,-0.258164,0.209343,146.141586,148.437500
1080.000000,-0.107404,0.209149,146.147720,148.437500
1081.000000,0.067388,0.209080,146.142624,148.437500
1082.000000,0.381952,0.209105,146.155640,148.437500
1083.000000,0.225319,0.209132,146.171326,148.437500
1084.000000,0.238441,0.209176,146.165161,148.437500
1085.000000,-0.153182,0.209059,146.155365,148.437500
1086.000000,-0.371767,0.209250,146.173645,148.437500
1087.000000,-0.343919,0.209297,146.196472,148.437500
1088.000000,-0.115110,0.209153,146.194000,148.437500
1089.000000,0.130789,0.209021,146.185211,148.437500
1090.000000,0.143454,0.209052,146.200104,148.437500
1091.000000,-0.001888,0.208909,146.224289,148.437500
1092.000000,-0.072538,0.208908,146.228287,148.437500
1093.000000,0.131170,0.208927,146.223984,148.437500
1094.000000,0.051747,0.208923,146.234833,148.437500
1095.000000,0.007496,0.208923,146.251495,148.437500
1096.000000,0.138418,0.208924,146.245819,148.437500
1097.000000,-0.200256,0.208851,146.233154,148.437500
1098.000000,-0.344682,0.209062,146.249374,148.437500
1099.000000,-0.251221,0.209374,146.275543,148.437500
1100.000000,-0.108473,0.209163,146.282364,148.437500
1101.000000,0.072118,0.209131,146.277115,148.437500
1102.000000,0.380732,0.209154,146.290649,148.437500
1103.000000,0.220817,0.208876,146.305588,148.437500
1104.000000,0.238823,0.208744,146.296280,148.437500
1105.000000,-0.151274,0.208584,146.285828,148.437500
1106.000000,-0.366197,0.208679,146.303146,148.437500
1107.000000,-0.334306,0.208559,146.322937,148.437500
1108.000000,-0.101759,0.208233,146.317429,148.437500
1109.000000,0.129263,0.208075,146.305832,148.437500
1110.000000,0.130789,0.208047,146.316406,148.437500
1111.000000,-0.000439,0.207766,146.337189,148.437500
1112.000000,-0.065595,0.207764,146.339828,148.437500
1113.000000,0.141394,0.207781,146.333527,148.437500
1114.000000,0.064641,0.207843,146.340500,148.437500
1115.000000,0.028019,0.207880,146.351883,148.437500
1116.000000,0.142844,0.207899,146.341217,148.437500
1117.000000,-0.220474,0.207881,146.323517,148.437500
1118.000000,-0.357805,0.208253,146.334793,148.437500
1119.000000,-0.231308,0.208826,146.355698,148.437500
1120.000000,-0.096036,0.208452,146.357834,148.437500
1121.000000,0.083867,0.208423,146.347214,148.437500
1122.000000,0.382639,0.208476,146.355698,148.437500
1123.000000,0.212882,0.208177,146.365448,148.437500
1124.000000,0.225471,0.207943,146.349838,148.437500
1125.000000,-0.152876,0.207647,146.334320,148.437500
1126.000000,-0.362764,0.207766,146.345947,148.437500
1127.000000,-0.321107,0.207770,146.359543,148.437500
1128.000000,-0.089017,0.207389,146.347504,148.437500
1129.000000,0.123388,0.207224,146.329697,148.437500
1130.000000,0.107900,0.207108,146.333725,148.437500
1131.000000,-0.009213,0.206693,146.347900,148.437500
1132.000000,-0.070706,0.206689,146.344345,148.437500
1133.000000,0.142309,0.206728,146.331100,148.437500
1134.000000,0.064031,0.206772,146.332840,148.437500
1135.000000,0.028935,0.206795,146.339081,148.437500
1136.000000,0.146811,0.206809,146.322479,148.437500
1137.000000,-0.236801,0.206758,146.299286,148.437500
1138.000000,-0.366274,0.207210,146.304764,148.437500
1139.000000,-0.210861,0.207848,146.319016,148.437500
1140.000000,-0.103513,0.207465,146.314163,148.437500
1141.000000,0.089208,0.207461,146.297897,148.437500
1142.000000,0.371576,0.207515,146.300919,148.437500
1143.000000,0.203651,0.207230,146.305878,148.437500
1144.000000,0.218376,0.206992,146.284851,148.437500
1145.000000,-0.137999,0.206674,146.264847,148.437500
1146.000000,-0.349031,0.206693,146.271484,148.437500
1147.000000,-0.299210,0.206439,146.281631,148.437500
1148.000000,-0.075208,0.205789,146.267273,148.437500
1149.000000,0.118200,0.205584,146.246887,148.437500
1150.000000,0.100118,0.205499,146.247009,148.437500
1151.000000,-0.007229,0.205158,146.254974,148.437500
1152.000000,-0.058881,0.205158,146.245575,148.437500
1153.000000,0.157797,0.205150,146.228683,148.437500
1154.000000,0.078908,0.205308,146.229370,148.437500
1155.000000,0.055257,0.205383,146.233490,148.437500
1156.000000,0.162833,0.205455,146.213974,148.437500
1157.000000,-0.256332,0.205552,146.188858,148.437500
1158.000000,-0.372148,0.206238,146.194016,148.437500
1159.000000,-0.174773,0.206897,146.208206,148.437500
1160.000000,-0.097028,0.206067,146.202362,148.437500
1161.000000,0.097982,0.206005,146.187408,148.437500
1162.000000,0.358301,0.206103,146.188553,148.437500
1163.000000,0.199226,0.205558,146.189377,148.437500
1164.000000,0.211967,0.205214,146.166168,148.437500
1165.000000,-0.129759,0.204856,146.148224,148.437500
1166.000000,-0.341096,0.204730,146.157379,148.437500
1167.000000,-0.277695,0.204300,146.170670,148.437500
1168.000000,-0.060178,0.203256,146.158554,148.437500
1169.000000,0.106680,0.202991,146.140320,148.437500
1170.000000,0.079671,0.202831,146.142639,148.437500
1171.000000,-0.016155,0.202404,146.151855,148.437500
1172.000000,-0.069181,0.202410,146.142487,148.437500
1173.000000,0.156806,0.202409,146.124069,148.437500
1174.000000,0.080663,0.202590,146.130783,148.437500
1175.000000,0.063420,0.202682,146.144012,148.437500
1176.000000,0.166419,0.202779,146.134872,148.437500
1177.000000,-0.272965,0.202982,146.123886,148.437500
1178.000000,-0.379549,0.203880,146.129700,148.437500
1179.000000,-0.148451,0.204625,146.127106,148.437500
1180.000000,-0.100080,0.203532,146.107422,148.437500
1181.000000,0.104543,0.203495,146.089783,148.437500
1182.000000,0.340982,0.203652,146.104416,148.437500
1183.000000,0.186484,0.202924,146.130219,148.437500
1184.000000,0.202125,0.202529,146.130676,148.437500
1185.000000,-0.118544,0.202134,146.124191,148.437500
1186.000000,-0.331102,0.201901,146.131516,148.437500
1187.000000,-0.253662,0.201192,146.136017,148.437500
1188.000000,-0.046674,0.199847,146.121979,148.437500
1189.000000,0.093023,0.199570,146.112350,148.437500
1190.000000,0.063191,0.199358,146.124023,148.437500
1191.000000,-0.015240,0.198941,146.143951,148.437500
1192.000000,-0.061093,0.198947,146.142593,148.437500
1193.000000,0.166114,0.198909,146.130646,148.437500
1194.000000,0.092031,0.199170,146.143066,148.437500
1195.000000,0.079137,0.199315,146.161819,148.437500
1196.000000,0.175345,0.199471,146.158218,148.437500
1197.000000,-0.289597,0.199761,146.145096,148.437500
1198.000000,-0.385042,0.200853,146.157120,148.437500
1199.000000,-0.128614,0.201585,146.177979,148.437500
1200.000000,-0.095655,0.200427,146.176559,148.437500
1201.000000,0.109274,0.200361,146.167328,148.437500
1202.000000,0.335870,0.200529,146.179199,148.437500
1203.000000,0.181601,0.199726,146.196259,148.437500
1204.000000,0.194190,0.199331,146.186569,148.437500
1205.000000,-0.116026,0.198845,146.170776,148.437500
1206.000000,-0.326448,0.198608,146.189148,148.437500
1207.000000,-0.241836,0.197914,146.218887,148.437500
1208.000000,-0.039502,0.196563,146.226120,148.437500
1209.000000,0.083791,0.196340,146.222153,148.437500
1210.000000,0.048543,0.196093,146.234665,148.437500
1211.000000,-0.021115,0.195716,146.249481,148.437500
1212.000000,-0.070668,0.195728,146.244278,148.437500
1213.000000,0.161154,0.195745,146.236191,148.437500
1214.000000,0.091955,0.195898,146.253067,148.437500
1215.000000,0.084554,0.196007,146.273361,148.437500
1216.000000,0.170157,0.196169,146.268997,148.437500
1217.000000,-0.299248,0.196387,146.258621,148.437500
1218.000000,-0.385996,0.197427,146.275665,148.437500
1219.000000,-0.120871,0.197957,146.302155,148.437500
1220.000000,-0.097753,0.196972,146.305618,148.437500
1221.000000,0.108816,0.196981,146.300018,148.437500
1222.000000,0.324121,0.197103,146.311859,148.437500
1223.000000,0.177710,0.196051,146.328552,148.437500
1224.000000,0.187934,0.195700,146.320831,148.437500
1225.000000,-0.119192,0.195303,146.306015,148.437500
1226.000000,-0.327249,0.195068,146.324020,148.437500
1227.000000,-0.236076,0.194439,146.351776,148.437500
1228.000000,-0.038510,0.193217,146.358719,148.437500
1229.000000,0.082265,0.193050,146.354218,148.437500
1230.000000,0.048390,0.192831,146.366882,148.437500
1231.000000,-0.022869,0.192590,146.380875,148.437500
1232.000000,-0.064488,0.192601,146.372635,148.437500
1233.000000,0.162909,0.192579,146.363205,148.437500
1234.000000,0.091115,0.192743,146.379395,148.437500
1235.000000,0.086538,0.192852,146.396942,148.437500
1236.000000,0.173056,0.193024,146.390137,148.437500
1237.000000,-0.305810,0.193241,146.377411,148.437500
1238.000000,-0.387675,0.194208,146.389893,148.437500
1239.000000,-0.112707,0.194623,146.411728,148.437500
1240.000000,-0.092412,0.193805,146.413422,148.437500
1241.000000,0.115072,0.193749,146.405746,148.437500
1242.000000,0.326867,0.193885,146.413864,148.437500
1243.000000,0.180076,0.193078,146.425919,148.437500
1244.000000,0.190528,0.192844,146.414108,148.437500
1245.000000,-0.123312,0.192548,146.395142,148.437500
1246.000000,-0.325189,0.192449,146.407959,148.437500
1247.000000,-0.231498,0.192031,146.429977,148.437500
1248.000000,-0.028592,0.191093,146.432434,148.437500
1249.000000,0.082494,0.190966,146.422897,148.437500
1250.000000,0.042668,0.190778,146.430862,148.437500
1251.000000,-0.023709,0.190563,146.440018,148.437500
1252.000000,-0.071279,0.190577,146.425949,148.437500
1253.000000,0.161612,0.190619,146.411697,148.437500
1254.000000,0.093252,0.190651,146.422806,148.437500
1255.000000,0.083639,0.190716,146.434647,148.437500
1256.000000,0.170996,0.190819,146.421860,148.437500
1257.000000,-0.312448,0.190890,146.403503,148.437500
1258.000000,-0.388056,0.191725,146.410187,148.437500
1259.000000,-0.093633,0.192040,146.425949,148.437500
1260.000000,-0.091650,0.191472,146.422180,148.437500
1261.000000,0.119192,0.191445,146.408478,148.437500
1262.000000,0.316720,0.191566,146.411880,148.437500
1263.000000,0.173209,0.190832,146.419022,148.437500
1264.000000,0.184272,0.190578,146.401901,148.437500
1265.000000,-0.122396,0.190289,146.378235,148.437500
1266.000000,-0.325113,0.190241,146.385803,148.437500
1267.000000,-0.225624,0.189961,146.401932,148.437500
1268.000000,-0.030270,0.189269,146.398376,148.437500
1269.000000,0.080282,0.189198,146.383926,148.437500
1270.000000,0.050221,0.189067,146.387222,148.437500
1271.000000,-0.024548,0.188966,146.392288,148.437500
1272.000000,-0.069219,0.188975,146.373566,148.437500
1273.000000,0.162375,0.188975,146.355743,148.437500
1274.000000,0.092870,0.189023,146.362366,148.437500
1275.000000,0.080816,0.189079,146.370941,148.437500
1276.000000,0.166037,0.189145,146.355957,148.437500
1277.000000,-0.307946,0.189142,146.335175,148.437500
1278.000000,-0.390955,0.189678,146.339294,148.437500
1279.000000,-0.108968,0.189909,146.350906,148.437500
1280.000000,-0.100576,0.189642,146.342911,148.437500
1281.000000,0.116674,0.189644,146.326981,148.437500
1282.000000,0.321832,0.189715,146.329559,148.437500
1283.000000,0.178168,0.189380,146.334152,148.437500
1284.000000,0.183280,0.189300,146.314102,148.437500
1285.000000,-0.126440,0.189108,146.288788,148.437500
1286.000000,-0.335870,0.189159,146.297043,148.437500
1287.000000,-0.238136,0.189243,146.314575,148.437500
1288.000000,-0.040723,0.189042,146.311188,148.437500
1289.000000,0.075628,0.189028,146.298599,148.437500
1290.000000,0.041447,0.188950,146.300964,148.437500
1291.000000,-0.030804,0.188890,146.302994,148.437500
1292.000000,-0.076238,0.188909,146.282990,148.437500
1293.000000,0.155356,0.188964,146.268112,148.437500
1294.000000,0.082799,0.188872,146.277374,148.437500
1295.000000,0.077459,0.188830,146.289093,148.437500
1296.000000,0.161841,0.188823,146.276337,148.437500
1297.000000,-0.307107,0.188702,146.257950,148.437500
1298.000000,-0.398737,0.188979,146.265549,148.437500
1299.000000,-0.133993,0.189263,146.280396,148.437500
1300.000000,-0.107290,0.189300,146.273895,148.437500
1301.000000,0.102483,0.189362,146.257996,148.437500
1302.000000,0.322442,0.189324,146.266647,148.437500
1303.000000,0.171607,0.189091,146.279724,148.437500
1304.000000,0.185492,0.188997,146.269669,148.437500
1305.000000,-0.136435,0.188910,146.258209,148.437500
1306.000000,-0.339303,0.189046,146.268341,148.437500
1307.000000,-0.247826,0.189272,146.271881,148.437500
1308.000000,-0.043393,0.189350,146.256958,148.437500
1309.000000,0.069600,0.189358,146.242889,148.437500
1310.000000,0.036107,0.189301,146.258835,148.437500
1311.000000,-0.033398,0.189273,146.285034,148.437500
1312.000000,-0.071546,0.189291,146.287949,148.437500
1313.000000,0.160925,0.189294,146.284805,148.437500
1314.000000,0.082723,0.189292,146.293427,148.437500
1315.000000,0.077611,0.189250,146.298141,148.437500
1316.000000,0.156577,0.189220,146.284943,148.437500
1317.000000,-0.304704,0.189103,146.275681,148.437500
1318.000000,-0.390612,0.189190,146.293198,148.437500
1319.000000,-0.128996,0.189284,146.318970,148.437500
1320.000000,-0.091154,0.189338,146.321060,148.437500
1321.000000,0.111410,0.189305,146.312424,148.437500
1322.000000,0.334344,0.189320,146.327469,148.437500
1323.000000,0.174735,0.189498,146.346832,148.437500
1324.000000,0.189384,0.189470,146.343277,148.437500
1325.000000,-0.127470,0.189485,146.331223,148.437500
1326.000000,-0.329728,0.189538,146.348328,148.437500
1327.000000,-0.244354,0.189581,146.374557,148.437500
1328.000000,-0.041562,0.189686,146.377701,148.437500
1329.000000,0.095006,0.189693,146.372589,148.437500
1330.000000,0.055715,0.189752,146.387344,148.437500
1331.000000,-0.025311,0.189772,146.406815,148.437500
1332.000000,-0.062009,0.189775,146.401657,148.437500
1333.000000,0.163443,0.189767,146.391083,148.437500
1334.000000,0.080358,0.189772,146.411423,148.437500
1335.000000,0.083028,0.189723,146.441025,148.437500
1336.000000,0.166495,0.189708,146.449158,148.437500
1337.000000,-0.297913,0.189649,146.446808,148.437500
1338.000000,-0.381685,0.189523,146.466217,148.437500
1339.000000,-0.129988,0.189401,146.487778,148.437500
1340.000000,-0.100996,0.189512,146.487137,148.437500
1341.000000,0.115682,0.189556,146.482849,148.437500
1342.000000,0.336023,0.189560,146.503632,148.437500
1343.000000,0.181678,0.189720,146.526611,148.437500
1344.000000,0.191825,0.189735,146.524384,148.437500
1345.000000,-0.130446,0.189748,146.516754,148.437500
1346.000000,-0.332399,0.189796,146.539413,148.437500
1347.000000,-0.256638,0.189921,146.571289,148.437500
1348.000000,-0.049115,0.190243,146.579697,148.437500
1349.000000,0.090963,0.190285,146.579178,148.437500
1350.000000,0.054952,0.190324,146.594971,148.437500
1351.000000,-0.032940,0.190355,146.615265,148.437500
1352.000000,-0.069791,0.190369,146.612946,148.437500
1353.000000,0.154440,0.190364,146.603851,148.437500
1354.000000,0.073720,0.190304,146.625656,148.437500
1355.000000,0.072423,0.190218,146.655472,148.437500
1356.000000,0.158331,0.190172,146.665207,148.437500
1357.000000,-0.289063,0.190063,146.664154,148.437500
1358.000000,-0.380159,0.189692,146.683838,148.437500
1359.000000,-0.150664,0.189532,146.703751,148.437500
1360.000000,-0.105421,0.189899,146.700333,148.437500
1361.000000,0.104162,0.189971,146.694702,148.437500
1362.000000,0.339532,0.189883,146.716415,148.437500
1363.000000,0.181678,0.190276,146.739624,148.437500
1364.000000,0.195792,0.190355,146.737411,148.437500
1365.000000,-0.142042,0.190470,146.729294,148.437500
1366.000000,-0.345903,0.190607,146.747818,148.437500
1367.000000,-0.276246,0.190972,146.774689,148.437500
1368.000000,-0.063077,0.191636,146.781372,148.437500
1369.000000,0.102636,0.191716,146.779602,148.437500
1370.000000,0.074254,0.191823,146.792404,148.437500
1371.000000,-0.028210,0.191901,146.808960,148.437500
1372.000000,-0.078412,0.191906,146.803177,148.437500
1373.000000,0.138190,0.191941,146.789810,148.437500
1374.000000,0.039311,0.191752,146.808640,148.437500
1375.000000,0.034733,0.191567,146.835144,148.437500
1376.000000,0.122854,0.191428,146.842422,148.437500
1377.000000,-0.281281,0.191102,146.838043,148.437500
1378.000000,-0.366655,0.190690,146.852219,148.437500
1379.000000,-0.149290,0.190207,146.864914,148.437500
1380.000000,-0.093061,0.190480,146.854828,148.437500
1381.000000,0.098363,0.190442,146.843506,148.437500
1382.000000,0.317102,0.190339,146.861542,148.437500
1383.000000,0.154288,0.190259,146.882324,148.437500
1384.000000,0.183051,0.190051,146.876633,148.437500
1385.000000,-0.138151,0.190048,146.864456,148.437500
1386.000000,-0.346132,0.190130,146.876495,148.437500
1387.000000,-0.275483,0.190314,146.895721,148.437500
1388.000000,-0.071851,0.190817,146.896225,148.437500
1389.000000,0.104086,0.190909,146.888748,148.437500
1390.000000,0.085622,0.191043,146.896713,148.437500
1391.000000,-0.014248,0.191190,146.908417,148.437500
1392.000000,-0.070706,0.191170,146.897217,148.437500
1393.000000,0.146735,0.191149,146.878342,148.437500
1394.000000,0.045644,0.191081,146.893188,148.437500
1395.000000,0.052663,0.190956,146.915253,148.437500
1396.000000,0.145132,0.190871,146.917526,148.437500
1397.000000,-0.267319,0.190737,146.908859,148.437500
1398.000000,-0.364672,0.190137,146.916885,148.437500
1399.000000,-0.166609,0.189452,146.922821,148.437500
1400.000000,-0.105039,0.189710,146.906647,148.437500
1401.000000,0.099432,0.189698,146.890533,148.437500
1402.000000,0.334802,0.189682,146.904633,148.437500
1403.000000,0.172827,0.189896,146.923416,148.437500
1404.000000,0.211204,0.189907,146.916000,148.437500
1405.000000,-0.134871,0.190175,146.901276,148.437500
1406.000000,-0.346590,0.190164,146.909439,148.437500
1407.000000,-0.294022,0.190295,146.922958,148.437500
1408.000000,-0.087491,0.190952,146.918152,148.437500
1409.000000,0.101339,0.191103,146.907623,148.437500
1410.000000,0.094549,0.191245,146.913895,148.437500
1411.000000,-0.020428,0.191444,146.922302,148.437500
1412.000000,-0.075437,0.191426,146.907211,148.437500
1413.000000,0.139868,0.191441,146.885605,148.437500
1414.000000,0.042363,0.191275,146.900131,148.437500
1415.000000,0.040303,0.191143,146.922501,148.437500
1416.000000,0.135061,0.191028,146.923752,148.437500
1417.000000,-0.253052,0.190864,146.915451,148.437500
1418.000000,-0.359407,0.190108,146.921173,148.437500
1419.000000,-0.181945,0.189491,146.923004,148.437500
1420.000000,-0.102979,0.189925,146.904343,148.437500
1421.000000,0.087835,0.189986,146.889633,148.437500
1422.000000,0.332818,0.189862,146.904755,148.437500
1423.000000,0.166190,0.189835,146.924652,148.437500
1424.000000,0.217155,0.189758,146.917374,148.437500
1425.000000,-0.123274,0.190056,146.903000,148.437500
1426.000000,-0.340867,0.190028,146.912994,148.437500
1427.000000,-0.293107,0.190224,146.928391,148.437500
1428.000000,-0.091382,0.190912,146.923508,148.437500
1429.000000,0.115148,0.191085,146.911255,148.437500
1430.000000,0.113470,0.191196,146.921585,148.437500
1431.000000,-0.014019,0.191451,146.936264,148.437500
1432.000000,-0.069257,0.191440,146.928833,148.437500
1433.000000,0.143759,0.191465,146.918655,148.437500
1434.000000,0.048695,0.191307,146.932770,148.437500
1435.000000,0.052434,0.191200,146.939728,148.437500
1436.000000,0.148566,0.191091,146.927887,148.437500
1437.000000,-0.253662,0.190944,146.916046,148.437500
1438.000000,-0.351472,0.190303,146.933136,148.437500
1439.000000,-0.162413,0.189721,146.956955,148.437500
1440.000000,-0.108778,0.189970,146.958450,148.437500
1441.000000,0.095769,0.190013,146.953430,148.437500
1442.000000,0.327173,0.189902,146.965714,148.437500
1443.000000,0.165732,0.189748,146.976257,148.437500
1444.000000,0.212730,0.189602,146.966019,148.437500
1445.000000,-0.118696,0.189825,146.957977,148.437500
1446.000000,-0.340944,0.189747,146.975845,148.437500
1447.000000,-0.287385,0.189899,147.000397,148.437500
1448.000000,-0.090848,0.190339,147.002075,148.437500
1449.000000,0.103017,0.190492,146.994751,148.437500
1450.000000,0.096990,0.190554,147.009445,148.437500
1451.000000,-0.026150,0.190721,147.028381,148.437500
1452.000000,-0.075589,0.190711,147.025299,148.437500
1453.000000,0.135214,0.190733,147.013046,148.437500
1454.000000,0.039769,0.190587,147.031647,148.437500
1455.000000,0.048695,0.190486,147.057755,148.437500
1456.000000,0.145819,0.190410,147.060944,148.437500
1457.000000,-0.253738,0.190310,147.055801,148.437500
1458.000000,-0.354601,0.189806,147.070297,148.437500
1459.000000,-0.171263,0.189310,147.086639,148.437500
1460.000000,-0.121595,0.189486,147.079285,148.437500
1461.000000,0.085546,0.189582,147.066299,148.437500
1462.000000,0.317178,0.189489,147.087799,148.437500
1463.000000,0.155051,0.189101,147.119522,148.437500
1464.000000,0.201972,0.188864,147.127502,148.437500
1465.000000,-0.123732,0.188929,147.124420,148.437500
1466.000000,-0.348421,0.188800,147.142700,148.437500
1467.000000,-0.294175,0.188847,147.162125,148.437500
1468.000000,-0.096952,0.189117,147.160065,148.437500
1469.000000,0.103933,0.189261,147.155426,148.437500
1470.000000,0.100423,0.189268,147.174225,148.437500
1471.000000,-0.042172,0.189388,147.195312,148.437500
1472.000000,-0.095731,0.189414,147.192276,148.437500
1473.000000,0.120794,0.189494,147.183151,148.437500
1474.000000,0.028477,0.189375,147.205399,148.437500
1475.000000,0.044575,0.189356,147.235077,148.437500
1476.000000,0.147726,0.189376,147.241592,148.437500
1477.000000,-0.238785,0.189554,147.239136,148.437500
1478.000000,-0.346361,0.188970,147.253983,148.437500
1479.000000,-0.195602,0.188587,147.271301,148.437500
1480.000000,-0.132963,0.189010,147.266129,148.437500
1481.000000,0.077230,0.189248,147.253967,148.437500
1482.000000,0.335031,0.189150,147.275208,148.437500
1483.000000,0.168250,0.189459,147.304871,148.437500
1484.000000,0.222801,0.189578,147.312454,148.437500
1485.000000,-0.127012,0.190003,147.309021,148.437500
1486.000000,-0.352312,0.189925,147.326981,148.437500
1487.000000,-0.319123,0.190039,147.344711,148.437500
1488.000000,-0.114576,0.190720,147.339508,148.437500
1489.000000,0.118887,0.190929,147.332581,148.437500
1490.000000,0.132696,0.191015,147.351303,148.437500
1491.000000,-0.019207,0.191284,147.371628,148.437500
1492.000000,-0.071164,0.191288,147.367645,148.437500
1493.000000,0.132162,0.191290,147.357346,148.437500
1494.000000,0.023594,0.191184,147.374451,148.437500
1495.000000,0.031376,0.191144,147.398056,148.437500
1496.000000,0.146353,0.191097,147.401978,148.437500
1497.000000,-0.207275,0.191106,147.397430,148.437500
1498.000000,-0.335832,0.190359,147.408875,148.437500
1499.000000,-0.241073,0.189828,147.422455,148.437500
1500.000000,-0.110685,0.190626,147.413498,148.437500
1501.000000,0.086690,0.190658,147.396881,148.437500
1502.000000,0.378519,0.190596,147.414230,148.437500
1503.000000,0.205711,0.191412,147.439590,148.437500
1504.000000,0.247826,0.191737,147.443985,148.437500
1505.000000,-0.155394,0.192175,147.436661,148.437500
1506.000000,-0.367113,0.192330,147.448761,148.437500
1507.000000,-0.359331,0.192710,147.459244,148.437500
1508.000000,-0.132582,0.193814,147.447327,148.437500
1509.000000,0.128424,0.194070,147.434433,148.437500
1510.000000,0.171836,0.194230,147.449158,148.437500
1511.000000,-0.004101,0.194759,147.466583,148.437500
1512.000000,-0.065518,0.194749,147.458817,148.437500
1513.000000,0.121710,0.194713,147.444351,148.437500
1514.000000,0.000935,0.194591,147.454391,148.437500
1515.000000,-0.007076,0.194545,147.469727,148.437500
1516.000000,0.110494,0.194505,147.467087,148.437500
1517.000000,-0.178435,0.194350,147.456268,148.437500
1518.000000,-0.320268,0.193519,147.463104,148.437500
1519.000000,-0.281128,0.192831,147.472519,148.437500
1520.000000,-0.121138,0.194018,147.458633,148.437500
1521.000000,0.073873,0.194123,147.436920,148.437500
1522.000000,0.379282,0.194065,147.449661,148.437500
1523.000000,0.208457,0.194915,147.469269,148.437500
1524.000000,0.253471,0.195321,147.467941,148.437500
1525.000000,-0.167372,0.195758,147.455902,148.437500
1526.000000,-0.374819,0.196085,147.462006,148.437500
1527.000000,-0.369783,0.196704,147.466248,148.437500
1528.000000,-0.138380,0.197992,147.448654,148.437500
1529.000000,0.136892,0.198264,147.430908,148.437500
1530.000000,0.200217,0.198402,147.441605,148.437500
1531.000000,0.012303,0.199087,147.456772,148.437500
1532.000000,-0.053769,0.199086,147.447128,148.437500
1533.000000,0.134680,0.199038,147.430145,148.437500
1534.000000,0.016651,0.198975,147.435913,148.437500
1535.000000,0.007725,0.198922,147.445267,148.437500
1536.000000,0.125372,0.198854,147.437332,148.437500
1537.000000,-0.172332,0.198694,147.423309,148.437500
1538.000000,-0.315843,0.197821,147.428574,148.437500
1539.000000,-0.267319,0.197219,147.435059,148.437500
1540.000000,-0.108167,0.198358,147.417557,148.437500
1541.000000,0.098287,0.198355,147.393250,148.437500
1542.000000,0.399958,0.198367,147.405396,148.437500
1543.000000,0.232795,0.199697,147.424881,148.437500
1544.000000,0.260109,0.200365,147.422440,148.437500
1545.000000,-0.179046,0.200923,147.410751,148.437500
1546.000000,-0.381228,0.201370,147.414581,148.437500
1547.000000,-0.380312,0.202091,147.414932,148.437500
1548.000000,-0.142271,0.203620,147.394974,148.437500
1549.000000,0.143530,0.203915,147.378555,148.437500
1550.000000,0.206321,0.204159,147.390244,148.437500
1551.000000,0.003910,0.204970,147.406494,148.437500
1552.000000,-0.062085,0.204953,147.397018,148.437500
1553.000000,0.117666,0.204908,147.380402,148.437500
1554.000000,-0.003491,0.204800,147.388000,148.437500
1555.000000,-0.024777,0.204762,147.399307,148.437500
1556.000000,0.099126,0.204719,147.391525,148.437500
1557.000000,-0.162413,0.204439,147.376068,148.437500
1558.000000,-0.315843,0.203507,147.385162,148.437500
1559.000000,-0.299668,0.202868,147.397690,148.437500
1560.000000,-0.129072,0.204353,147.387527,148.437500
1561.000000,0.063115,0.204399,147.374161,148.437500
1562.000000,0.374323,0.204317,147.386185,148.437500
1563.000000,0.196250,0.205282,147.391510,148.437500
1564.000000,0.237526,0.205634,147.377014,148.437500
1565.000000,-0.195449,0.206014,147.362167,148.437500
1566.000000,-0.387713,0.206569,147.377075,148.437500
1567.000000,-0.371691,0.207268,147.398544,148.437500
1568.000000,-0.130369,0.208509,147.397949,148.437500
1569.000000,0.132010,0.208691,147.391037,148.437500
1570.000000,0.159018,0.208850,147.400452,148.437500
1571.000000,-0.023556,0.209213,147.408325,148.437500
1572.000000,-0.082227,0.209184,147.396515,148.437500
1573.000000,0.116674,0.209127,147.386444,148.437500
1574.000000,0.002003,0.209103,147.401779,148.437500
1575.000000,-0.004559,0.209084,147.422043,148.437500
1576.000000,0.108892,0.209037,147.420990,148.437500
1577.000000,-0.182784,0.208798,147.410721,148.437500
1578.000000,-0.324006,0.208232,147.424408,148.437500
1579.000000,-0.263352,0.207872,147.441788,148.437500
1580.000000,-0.113966,0.208619,147.436340,148.437500
1581.000000,0.088674,0.208506,147.421753,148.437500
1582.000000,0.377451,0.208552,147.438599,148.437500
1583.000000,0.206474,0.209275,147.462372,148.437500
1584.000000,0.244697,0.209617,147.462311,148.437500
1585.000000,-0.171721,0.209861,147.454163,148.437500
1586.000000,-0.367723,0.210179,147.467621,148.437500
1587.000000,-0.349336,0.210443,147.483017,148.437500
1588.000000,-0.119841,0.210922,147.474945,148.437500
1589.000000,0.144598,0.210951,147.461212,148.437500
1590.000000,0.175956,0.211112,147.480103,148.437500
1591.000000,-0.006237,0.211428,147.508698,148.437500
1592.000000,-0.061780,0.211420,147.514893,148.437500
1593.000000,0.125067,0.211391,147.510391,148.437500
1594.000000,0.009327,0.211347,147.526596,148.437500
1595.000000,0.001850,0.211336,147.542679,148.437500
1596.000000,0.113699,0.211313,147.539124,148.437500
1597.000000,-0.193618,0.211112,147.532425,148.437500
1598.000000,-0.325303,0.210982,147.550613,148.437500
1599.000000,-0.262970,0.210817,147.570724,148.437500
1600.000000,-0.120375,0.211079,147.566025,148.437500
1601.000000,0.072271,0.211132,147.555099,148.437500
1602.000000,0.351053,0.211078,147.576187,148.437500
1603.000000,0.165045,0.210603,147.604401,148.437500
1604.000000,0.228904,0.210244,147.608505,148.437500
1605.000000,-0.158141,0.210030,147.603790,148.437500
1606.000000,-0.362306,0.210050,147.618347,148.437500
1607.000000,-0.334306,0.209967,147.635284,148.437500
1608.000000,-0.117704,0.209553,147.629822,148.437500
1609.000000,0.110647,0.209464,147.617584,148.437500
1610.000000,0.130255,0.209363,147.636963,148.437500
1611.000000,-0.010739,0.209062,147.664459,148.437500
1612.000000,-0.061551,0.209065,147.670975,148.437500
1613.000000,0.143072,0.209053,147.666809,148.437500
1614.000000,0.026722,0.209188,147.683548,148.437500
1615.000000,0.037709,0.209205,147.698792,148.437500
1616.000000,0.138876,0.209238,147.692810,148.437500
1617.000000,-0.198730,0.209407,147.684448,148.437500
1618.000000,-0.318513,0.209589,147.703201,148.437500
1619.000000,-0.233978,0.209563,147.723312,148.437500
1620.000000,-0.099165,0.208982,147.718384,148.437500
1621.000000,0.103399,0.208867,147.707016,148.437500
1622.000000,0.389811,0.208992,147.723770,148.437500
1623.000000,0.216011,0.209185,147.746338,148.437500
1624.000000,0.273079,0.209262,147.747955,148.437500
1625.000000,-0.133497,0.209509,147.741287,148.437500
1626.000000,-0.341859,0.209265,147.753296,148.437500
1627.000000,-0.333925,0.208700,147.767441,148.437500
1628.000000,-0.111143,0.208095,147.759033,148.437500
1629.000000,0.150854,0.207931,147.742920,148.437500
1630.000000,0.203117,0.208028,147.758865,148.437500
1631.000000,0.019703,0.208056,147.782349,148.437500
1632.000000,-0.033474,0.208062,147.786057,148.437500
1633.000000,0.151999,0.208019,147.778549,148.437500
1634.000000,0.031987,0.208138,147.789383,148.437500
1635.000000,0.039693,0.208156,147.797455,148.437500
1636.000000,0.145590,0.208193,147.785049,148.437500
1637.000000,-0.182708,0.208324,147.770950,148.437500
1638.000000,-0.302720,0.208413,147.785828,148.437500
1639.000000,-0.236419,0.208218,147.803513,148.437500
1640.000000,-0.092756,0.207844,147.795059,148.437500
1641.000000,0.112936,0.207769,147.779541,148.437500
1642.000000,0.400263,0.207844,147.789108,148.437500
1643.000000,0.221580,0.207850,147.803375,148.437500
1644.000000,0.270104,0.207727,147.798523,148.437500
1645.000000,-0.143034,0.207854,147.785660,148.437500
1646.000000,-0.365511,0.207575,147.792786,148.437500
1647.000000,-0.370623,0.207292,147.802261,148.437500
1648.000000,-0.155776,0.207117,147.788483,148.437500
1649.000000,0.123236,0.207214,147.766861,148.437500
1650.000000,0.202735,0.207083,147.777740,148.437500
1651.000000,0.014668,0.207048,147.795074,148.437500
1652.000000,-0.043393,0.207053,147.792511,148.437500
1653.000000,0.127356,0.207005,147.779449,148.437500
1654.000000,-0.018673,0.207062,147.784180,148.437500
1655.000000,-0.046521,0.207071,147.785889,148.437500
1656.000000,0.073262,0.207108,147.767212,148.437500
1657.000000,-0.117933,0.207000,147.747787,148.437500
1658.000000,-0.267090,0.206699,147.757645,148.437500
1659.000000,-0.367494,0.206010,147.771255,148.437500
1660.000000,-0.156081,0.207106,147.759354,148.437500
1661.000000,0.073568,0.207291,147.739990,148.437500
1662.000000,0.387217,0.207326,147.744629,148.437500
1663.000000,0.243706,0.207563,147.752716,148.437500
1664.000000,0.288643,0.208065,147.742035,148.437500
1665.000000,-0.183471,0.208710,147.725159,148.437500
1666.000000,-0.418765,0.208602,147.729218,148.437500
1667.000000,-0.455463,0.209201,147.734146,148.437500
1668.000000,-0.233520,0.210851,147.715256,148.437500
1669.000000,0.124075,0.211739,147.689804,148.437500
1670.000000,0.321908,0.211691,147.698685,148.437500
1671.000000,0.043660,0.213533,147.714569,148.437500
1672.000000,-0.051022,0.213565,147.709473,148.437500
1673.000000,0.089971,0.213467,147.695221,148.437500
1674.000000,-0.071775,0.213338,147.696594,148.437500
1675.000000,-0.111906,0.213459,147.693420,148.437500
1676.000000,0.045644,0.213751,147.671158,148.437500
1677.000000,-0.051633,0.213523,147.651611,148.437500
1678.000000,-0.221084,0.212801,147.660873,148.437500
1679.000000,-0.437533,0.211479,147.673660,148.437500
1680.000000,-0.209258,0.214346,147.660248,148.437500
1681.000000,0.090963,0.215063,147.639618,148.437500
1682.000000,0.429255,0.215073,147.644653,148.437500
1683.000000,0.305581,0.216042,147.653748,148.437500
1684.000000,0.291466,0.217214,147.642441,148.437500
1685.000000,-0.230316,0.217790,147.623337,148.437500
1686.000000,-0.442264,0.218330,147.629288,148.437500
1687.000000,-0.479190,0.219709,147.638123,148.437500
1688.000000,-0.230392,0.222143,147.624649,148.437500
1689.000000,0.120871,0.223013,147.608307,148.437500
1690.000000,0.313058,0.222872,147.615799,148.437500
1691.000000,0.038014,0.224371,147.617203,148.437500
1692.000000,-0.046445,0.224402,147.599594,148.437500
1693.000000,0.093557,0.224365,147.581100,148.437500
1694.000000,-0.064603,0.224212,147.592422,148.437500
1695.000000,-0.124342,0.224303,147.608627,148.437500
1696.000000,0.039311,0.224647,147.603729,148.437500
1697.000000,-0.027600,0.224394,147.592346,148.437500
1698.000000,-0.208648,0.223574,147.598419,148.437500
1699.000000,-0.463321,0.222177,147.602219,148.437500
1700.000000,-0.264038,0.225427,147.585876,148.437500
1701.000000,0.040303,0.226649,147.570847,148.437500
1702.000000,0.379740,0.226570,147.582779,148.437500
1703.000000,0.290627,0.227032,147.599625,148.437500
1704.000000,0.214714,0.228289,147.593781,148.437500
1705.000000,-0.353990,0.228151,147.578583,148.437500
1706.000000,-0.531758,0.230338,147.588760,148.437500
1707.000000,-0.548466,0.233604,147.602417,148.437500
1708.000000,-0.239242,0.237616,147.593597,148.437500
1709.000000,0.189002,0.238527,147.576065,148.437500
1710.000000,0.475414,0.239019,147.588089,148.437500
1711.000000,0.035801,0.243353,147.606613,148.437500
1712.000000,-0.163634,0.243376,147.602829,148.437500
1713.000000,-0.050946,0.243848,147.591476,148.437500
1714.000000,-0.282807,0.243482,147.600021,148.437500
1715.000000,-0.056516,0.245104,147.609299,148.437500
1716.000000,0.169242,0.245140,147.597031,148.437500
1717.000000,0.012760,0.245331,147.578842,148.437500
1718.000000,-0.243286,0.244528,147.595062,148.437500
1719.000000,-0.516957,0.243662,147.621033,148.437500
1720.000000,-0.230468,0.247984,147.623764,148.437500
1721.000000,0.200217,0.248856,147.615860,148.437500
1722.000000,0.639677,0.249445,147.628174,148.437500
1723.000000,0.391184,0.254549,147.638596,148.437500
1724.000000,0.039616,0.256630,147.629028,148.437500
1725.000000,-0.462024,0.255204,147.616547,148.437500
1726.000000,-0.535801,0.259009,147.632874,148.437500
1727.000000,-0.497044,0.262274,147.651962,148.437500
1728.000000,-0.119001,0.264845,147.646255,148.437500
1729.000000,0.303674,0.264879,147.633469,148.437500
1730.000000,0.436503,0.266187,147.650558,148.437500
1731.000000,0.000095,0.268977,147.673859,148.437500
1732.000000,-0.183471,0.268970,147.675262,148.437500
1733.000000,-0.080549,0.269574,147.668884,148.437500
1734.000000,-0.296998,0.269265,147.678711,148.437500
1735.000000,-0.031186,0.270880,147.690125,148.437500
1736.000000,0.163596,0.270868,147.681824,148.437500
1737.000000,0.001698,0.270971,147.666611,148.437500
1738.000000,-0.277848,0.270355,147.684494,148.437500
1739.000000,-0.577535,0.270087,147.711731,148.437500
1740.000000,-0.321183,0.275179,147.717026,148.437500
1741.000000,0.169089,0.276892,147.710922,148.437500
1742.000000,0.601148,0.277178,147.725143,148.437500
1743.000000,0.385615,0.280783,147.736465,148.437500
1744.000000,0.042439,0.282551,147.726013,148.437500
1745.000000,-0.458438,0.281289,147.713211,148.437500
1746.000000,-0.535573,0.284642,147.731964,148.437500
1747.000000,-0.496128,0.287321,147.752853,148.437500
1748.000000,-0.123274,0.289208,147.748489,148.437500
1749.000000,0.305428,0.289051,147.736877,148.437500
1750.000000,0.452678,0.290399,147.751404,148.437500
1751.000000,0.013294,0.293206,147.770874,148.437500
1752.000000,-0.158522,0.293205,147.771362,148.437500
1753.000000,-0.049573,0.293601,147.764587,148.437500
1754.000000,-0.276551,0.293367,147.773956,148.437500
1755.000000,-0.025311,0.294661,147.784943,148.437500
1756.000000,0.181144,0.294635,147.775894,148.437500
1757.000000,0.012074,0.295101,147.759094,148.437500
1758.000000,-0.264191,0.294868,147.774323,148.437500
1759.000000,-0.555714,0.294841,147.798172,148.437500
1760.000000,-0.284257,0.297774,147.801422,148.437500
1761.000000,0.202125,0.298720,147.792633,148.437500
1762.000000,0.648833,0.299313,147.803055,148.437500
1763.000000,0.412318,0.303807,147.810455,148.437500
1764.000000,0.031910,0.305622,147.795975,148.437500
1765.000000,-0.458515,0.304272,147.779648,148.437500
1766.000000,-0.535039,0.307160,147.795883,148.437500
1767.000000,-0.489796,0.308960,147.814606,148.437500
1768.000000,-0.112440,0.309485,147.806870,148.437500
1769.000000,0.326104,0.308807,147.791901,148.437500
1770.000000,0.484646,0.310277,147.800568,148.437500
1771.000000,0.021458,0.312385,147.813980,148.437500
1772.000000,-0.163252,0.312361,147.809219,148.437500
1773.000000,-0.052701,0.312746,147.796768,148.437500
1774.000000,-0.281434,0.312661,147.803497,148.437500
1775.000000,-0.015850,0.313843,147.811829,148.437500
1776.000000,0.191215,0.313648,147.798706,148.437500
1777.000000,0.023747,0.314197,147.777924,148.437500
1778.000000,-0.260605,0.314163,147.788315,148.437500
1779.000000,-0.564870,0.314466,147.804626,148.437500
1780.000000,-0.297456,0.316489,147.799774,148.437500
1781.000000,0.216773,0.317194,147.783752,148.437500
1782.000000,0.671187,0.317804,147.789139,148.437500
1783.000000,0.417582,0.321965,147.794464,148.437500
1784.000000,0.021992,0.323221,147.777496,148.437500
1785.000000,-0.460880,0.321911,147.758621,148.437500
1786.000000,-0.539845,0.324377,147.767883,148.437500
1787.000000,-0.493763,0.325851,147.778351,148.437500
1788.000000,-0.112745,0.326069,147.763077,148.437500
1789.000000,0.334649,0.325449,147.742828,148.437500
1790.000000,0.501888,0.326942,147.747040,148.437500
1791.000000,0.028782,0.329287,147.757553,148.437500
1792.000000,-0.168898,0.329277,147.746796,148.437500
1793.000000,-0.070706,0.329678,147.727692,148.437500
1794.000000,-0.295548,0.329621,147.732452,148.437500
1795.000000,-0.011578,0.330880,147.736786,148.437500
1796.000000,0.196250,0.330648,147.719086,148.437500
1797.000000,0.037785,0.331207,147.696152,148.437500
1798.000000,-0.249542,0.331217,147.703110,148.437500
1799.000000,-0.569829,0.331500,147.712494,148.437500
1800.000000,-0.313859,0.333155,147.698425,148.437500
1801.000000,0.238823,0.333587,147.676910,148.437500
1802.000000,0.705062,0.334416,147.682114,148.437500
1803.000000,0.468013,0.339652,147.689758,148.437500
1804.000000,0.053807,0.341627,147.672195,148.437500
1805.000000,-0.425937,0.340994,147.653137,148.437500
1806.000000,-0.521153,0.341816,147.657211,148.437500
1807.000000,-0.485981,0.341653,147.661499,148.437500
1808.000000,-0.130293,0.340705,147.641251,148.437500
1809.000000,0.319467,0.340114,147.619904,148.437500
1810.000000,0.536297,0.341088,147.625549,148.437500
1811.000000,0.092145,0.341990,147.637482,148.437500
1812.000000,-0.102941,0.342095,147.624603,148.437500
1813.000000,-0.020542,0.341859,147.600616,148.437500
1814.000000,-0.284905,0.341827,147.606430,148.437500
1815.000000,-0.049229,0.341844,147.613419,148.437500
1816.000000,0.193160,0.341833,147.600876,148.437500
1817.000000,0.037137,0.341960,147.586792,148.437500
1818.000000,-0.220130,0.341977,147.591049,148.437500
1819.000000,-0.567807,0.341820,147.582809,148.437500
1820.000000,-0.332589,0.342626,147.551849,148.437500
1821.000000,0.201095,0.343464,147.521149,148.437500
1822.000000,0.640822,0.343470,147.536102,148.437500
1823.000000,0.440166,0.343491,147.565887,148.437500
1824.000000,0.061933,0.344083,147.567734,148.437500
1825.000000,-0.449550,0.344116,147.556412,148.437500
1826.000000,-0.544003,0.343951,147.553833,148.437500
1827.000000,-0.515621,0.344080,147.545593,148.437500
1828.000000,-0.149405,0.344353,147.519669,148.437500
1829.000000,0.297837,0.344471,147.502640,148.437500
1830.000000,0.501965,0.344420,147.515152,148.437500
1831.000000,0.033093,0.345311,147.536270,148.437500
1832.000000,-0.176108,0.345327,147.528580,148.437500
1833.000000,-0.091192,0.345289,147.507477,148.437500
1834.000000,-0.319619,0.345315,147.517776,148.437500
1835.000000,-0.041218,0.345517,147.529633,148.437500
1836.000000,0.191863,0.345527,147.522827,148.437500
1837.000000,0.042020,0.345673,147.508484,148.437500
1838.000000,-0.228218,0.345698,147.516998,148.437500
1839.000000,-0.564374,0.345335,147.523499,148.437500
1840.000000,-0.333200,0.345117,147.504562,148.437500
1841.000000,0.187209,0.345231,147.481018,148.437500
1842.000000,0.613355,0.345325,147.495987,148.437500
1843.000000,0.435359,0.345539,147.521576,148.437500
1844.000000,0.090696,0.346130,147.517944,148.437500
1845.000000,-0.421244,0.346222,147.501007,148.437500
1846.000000,-0.526303,0.345750,147.509171,148.437500
1847.000000,-0.503567,0.345607,147.522888,148.437500
1848.000000,-0.156958,0.345715,147.516632,148.437500
1849.000000,0.287156,0.345851,147.507965,148.437500
1850.000000,0.538739,0.345695,147.522476,148.437500
1851.000000,0.095350,0.346927,147.538742,148.437500
1852.000000,-0.120718,0.347055,147.529785,148.437500
1853.000000,-0.045491,0.346903,147.514420,148.437500
1854.000000,-0.300469,0.346897,147.531006,148.437500
1855.000000,-0.061208,0.347096,147.549057,148.437500
1856.000000,0.196365,0.347141,147.546509,148.437500
1857.000000,0.053388,0.347224,147.537201,148.437500
1858.000000,-0.195716,0.347263,147.552628,148.437500
1859.000000,-0.548123,0.346809,147.568909,148.437500
1860.000000,-0.328698,0.346688,147.561295,148.437500
1861.000000,0.180648,0.347081,147.547760,148.437500
1862.000000,0.601225,0.346962,147.564346,148.437500
1863.000000,0.455959,0.346104,147.587494,148.437500
1864.000000,0.115110,0.346651,147.584335,148.437500
1865.000000,-0.414454,0.346827,147.571106,148.437500
1866.000000,-0.521420,0.346272,147.587112,148.437500
1867.000000,-0.509823,0.346064,147.609238,148.437500
1868.000000,-0.166571,0.346353,147.611313,148.437500
1869.000000,0.271744,0.346571,147.607147,148.437500
1870.000000,0.517147,0.346102,147.624146,148.437500
1871.000000,0.081388,0.346572,147.639648,148.437500
1872.000000,-0.133993,0.346661,147.632141,148.437500
1873.000000,-0.059834,0.346536,147.621292,148.437500
1874.000000,-0.309625,0.346547,147.641281,148.437500
1875.000000,-0.081044,0.346787,147.662888,148.437500
1876.000000,0.186751,0.346879,147.661835,148.437500
1877.000000,0.049954,0.346854,147.653488,148.437500
1878.000000,-0.186713,0.346882,147.669266,148.437500
1879.000000,-0.518597,0.346405,147.689896,148.437500
1880.000000,-0.315957,0.345681,147.690704,148.437500
1881.000000,0.143416,0.345845,147.684204,148.437500
1882.000000,0.550107,0.345463,147.699631,148.437500
1883.000000,0.436046,0.343316,147.715149,148.437500
1884.000000,0.178893,0.343545,147.705963,148.437500
1885.000000,-0.374170,0.344004,147.691849,148.437500
1886.000000,-0.496929,0.342950,147.713242,148.437500
1887.000000,-0.505779,0.342300,147.741730,148.437500
1888.000000,-0.182441,0.342476,147.749359,148.437500
1889.000000,0.245499,0.342776,147.745590,148.437500
1890.000000,0.528973,0.342021,147.758896,148.437500
1891.000000,0.134642,0.342429,147.767273,148.437500
1892.000000,-0.066701,0.342681,147.757263,148.437500
1893.000000,0.007000,0.342330,147.747971,148.437500
1894.000000,-0.256828,0.342257,147.765579,148.437500
1895.000000,-0.102255,0.341945,147.786240,148.437500
1896.000000,0.183928,0.342096,147.780731,148.437500
1897.000000,0.060483,0.342027,147.767136,148.437500
1898.000000,-0.167182,0.342060,147.779160,148.437500
1899.000000,-0.516384,0.341558,147.802719,148.437500
1900.000000,-0.315881,0.340707,147.809738,148.437500
1901.000000,0.178359,0.340726,147.806488,148.437500
1902.000000,0.572690,0.340355,147.815216,148.437500
1903.000000,0.446040,0.337861,147.816650,148.437500
1904.000000,0.178130,0.337564,147.795776,148.437500
1905.000000,-0.377527,0.337991,147.777283,148.437500
1906.000000,-0.500515,0.337415,147.801590,148.437500
1907.000000,-0.504864,0.337102,147.831375,148.437500
1908.000000,-0.172446,0.337380,147.837677,148.437500
1909.000000,0.246948,0.337569,147.828751,148.437500
1910.000000,0.473354,0.336960,147.835953,148.437500
1911.000000,0.072728,0.336016,147.837891,148.437500
1912.000000,-0.095884,0.335968,147.826462,148.437500
1913.000000,-0.006390,0.335947,147.818542,148.437500
1914.000000,-0.250229,0.335941,147.829636,148.437500
1915.000000,-0.105421,0.335665,147.843094,148.437500
1916.000000,0.174964,0.335795,147.829865,148.437500
1917.000000,0.040379,0.335695,147.810089,148.437500
1918.000000,-0.191939,0.335699,147.818771,148.437500
1919.000000,-0.529850,0.335525,147.843384,148.437500
1920.000000,-0.316758,0.334904,147.849442,148.437500
1921.000000,0.150092,0.334751,147.843201,148.437500
1922.000000,0.550603,0.334483,147.847748,148.437500
1923.000000,0.417277,0.332872,147.840973,148.437500
1924.000000,0.160544,0.332577,147.813202,148.437500
1925.000000,-0.395266,0.332907,147.791672,148.437500
1926.000000,-0.505894,0.332217,147.814026,148.437500
1927.000000,-0.508793,0.331615,147.839096,148.437500
1928.000000,-0.166991,0.331509,147.837982,148.437500
1929.000000,0.249886,0.331593,147.823898,148.437500
1930.000000,0.470150,0.331197,147.829575,148.437500
1931.000000,0.051442,0.330730,147.830948,148.437500
1932.000000,-0.104734,0.330753,147.817001,148.437500
1933.000000,-0.004940,0.330450,147.807556,148.437500
1934.000000,-0.251373,0.330324,147.811523,148.437500
1935.000000,-0.100538,0.329734,147.817719,148.437500
1936.000000,0.175345,0.329862,147.798996,148.437500
1937.000000,0.039158,0.329770,147.776611,148.437500
1938.000000,-0.194305,0.329766,147.784576,148.437500
1939.000000,-0.506657,0.329549,147.808197,148.437500
1940.000000,-0.272736,0.328609,147.810638,148.437500
1941.000000,0.164435,0.328052,147.798752,148.437500
1942.000000,0.571050,0.327929,147.802109,148.437500
1943.000000,0.477321,0.327165,147.795731,148.437500
1944.000000,0.192969,0.327749,147.771027,148.437500
1945.000000,-0.364214,0.328192,147.755493,148.437500
1946.000000,-0.483921,0.327508,147.772614,148.437500
1947.000000,-0.505741,0.326854,147.779221,148.437500
1948.000000,-0.187285,0.326888,147.761383,148.437500
1949.000000,0.230278,0.327047,147.737549,148.437500
1950.000000,0.528706,0.326597,147.750244,148.437500
1951.000000,0.124838,0.326433,147.770264,148.437500
1952.000000,-0.082303,0.326533,147.772430,148.437500
1953.000000,-0.009289,0.326413,147.767914,148.437500
1954.000000,-0.271820,0.326383,147.764709,148.437500
1955.000000,-0.155623,0.326132,147.758408,148.437500
1956.000000,0.148260,0.326445,147.734528,148.437500
1957.000000,0.058003,0.326191,147.716049,148.437500
1958.000000,-0.148756,0.326199,147.728622,148.437500
1959.000000,-0.507343,0.325951,147.756042,148.437500
1960.000000,-0.357805,0.325290,147.757706,148.437500
1961.000000,0.081960,0.325597,147.743668,148.437500
1962.000000,0.413691,0.325199,147.751129,148.437500
1963.000000,0.363794,0.322259,147.753769,148.437500
1964.000000,0.240043,0.321085,147.738083,148.437500
1965.000000,-0.326143,0.321775,147.721466,148.437500
1966.000000,-0.495670,0.320757,147.736938,148.437500
1967.000000,-0.514515,0.320349,147.750504,148.437500
1968.000000,-0.213912,0.320424,147.737976,148.437500
1969.000000,0.197547,0.320705,147.718155,148.437500
1970.000000,0.442912,0.320161,147.730255,148.437500
1971.000000,0.077916,0.319046,147.748810,148.437500
1972.000000,-0.040646,0.319038,147.744614,148.437500
1973.000000,0.056554,0.318782,147.731155,148.437500
1974.000000,-0.182937,0.318776,147.736481,148.437500
1975.000000,-0.118620,0.317796,147.747559,148.437500
1976.000000,0.169852,0.317914,147.740677,148.437500
1977.000000,0.049687,0.317819,147.730438,148.437500
1978.000000,-0.187285,0.317819,147.742996,148.437500
1979.000000,-0.494602,0.317822,147.760345,148.437500
1980.000000,-0.253586,0.317439,147.754120,148.437500
1981.000000,0.196708,0.316879,147.739441,148.437500
1982.000000,0.593328,0.317165,147.753326,148.437500
1983.000000,0.415446,0.317943,147.766724,148.437500
1984.000000,0.151083,0.317667,147.759048,148.437500
1985.000000,-0.399920,0.317523,147.747543,148.437500
1986.000000,-0.500172,0.317837,147.764297,148.437500
1987.000000,-0.498112,0.317887,147.780792,148.437500
1988.000000,-0.145705,0.317766,147.773865,148.437500
1989.000000,0.249886,0.317577,147.761078,148.437500
1990.000000,0.395380,0.317611,147.774521,148.437500
1991.000000,-0.009670,0.315661,147.793457,148.437500
1992.000000,-0.134260,0.315375,147.789673,148.437500
1993.000000,-0.014706,0.315590,147.777618,148.437500
1994.000000,-0.218338,0.315593,147.790436,148.437500
1995.000000,-0.134947,0.315303,147.808624,148.437500
1996.000000,0.127127,0.315426,147.809174,148.437500
1997.000000,0.013752,0.315146,147.803864,148.437500
1998.000000,-0.217880,0.315091,147.817886,148.437500
1999.000000,-0.463321,0.315400,147.831421,148.437500
2000.000000,-0.206512,0.314575,147.822388,148.437500
2001.000000,0.145590,0.313666,147.808380,148.437500
2002.000000,0.473888,0.313496,147.826843,148.437500
2003.000000,0.464885,0.311843,147.848053,148.437500
2004.000000,0.404154,0.312118,147.845459,148.437500
2005.000000,-0.137388,0.314219,147.835953,148.437500
2006.000000,-0.283570,0.312245,147.850876,148.437500
2007.000000,-0.339342,0.309510,147.867935,148.437500
2008.000000,-0.103513,0.307244,147.865692,148.437500
2009.000000,0.213188,0.306934,147.858551,148.437500
2010.000000,0.432307,0.306681,147.871918,148.437500
2011.000000,0.146353,0.306074,147.886734,148.437500
2012.000000,0.075399,0.306338,147.878479,148.437500
2013.000000,0.172217,0.306280,147.865219,148.437500
2014.000000,0.082418,0.306764,147.883102,148.437500
2015.000000,0.075170,0.305852,147.906921,148.437500
2016.000000,0.095235,0.305763,147.913651,148.437500
2017.000000,-0.250763,0.305411,147.910019,148.437500
2018.000000,-0.260758,0.306412,147.920975,148.437500
2019.000000,-0.159667,0.306920,147.926559,148.437500
2020.000000,-0.081769,0.302733,147.912720,148.437500
2021.000000,0.032902,0.301182,147.898712,148.437500
2022.000000,0.177176,0.300826,147.917099,148.437500
2023.000000,0.025044,0.296274,147.940704,148.437500
2024.000000,0.085775,0.293332,147.936661,148.437500
2025.000000,-0.132811,0.293018,147.923569,148.437500
2026.000000,-0.241302,0.290643,147.934479,148.437500
2027.000000,-0.117018,0.287222,147.953186,148.437500
2028.000000,-0.047436,0.282922,147.955948,148.437500
2029.000000,0.013447,0.282468,147.951599,148.437500
2030.000000,0.011997,0.281364,147.959579,148.437500
2031.000000,-0.083677,0.277411,147.963455,148.437500
2032.000000,-0.066510,0.277489,147.945770,148.437500
2033.000000,0.147879,0.277371,147.928955,148.437500
2034.000000,0.109808,0.277765,147.949615,148.437500
2035.000000,0.180152,0.276843,147.974762,148.437500
2036.000000,0.254845,0.277246,147.980728,148.437500
2037.000000,-0.225433,0.277862,147.973129,148.437500
2038.000000,-0.304017,0.278748,147.979019,148.437500
2039.000000,0.024434,0.279727,147.979492,148.437500
2040.000000,-0.029278,0.275111,147.965103,148.437500
2041.000000,0.201514,0.273771,147.952759,148.437500
2042.000000,0.293908,0.274019,147.965897,148.437500
2043.000000,0.197318,0.269609,147.982529,148.437500
2044.000000,0.224403,0.266083,147.971603,148.437500
2045.000000,0.011463,0.266330,147.952957,148.437500
2046.000000,-0.190871,0.263830,147.961395,148.437500
2047.000000,-0.194152,0.260055,147.980896,148.437500
2048.000000,-0.154479,0.255828,147.982697,148.437500
2049.000000,0.079442,0.255609,147.976486,148.437500
2050.000000,0.211204,0.254693,147.981689,148.437500
2051.000000,0.024281,0.250039,147.978561,148.437500
2052.000000,-0.014248,0.249739,147.954346,148.437500
2053.000000,0.172370,0.249607,147.934723,148.437500
2054.000000,0.104009,0.250200,147.953934,148.437500
2055.000000,0.104009,0.248936,147.975571,148.437500
2056.000000,0.162299,0.248667,147.974960,148.437500
2057.000000,-0.059415,0.248755,147.962296,148.437500
2058.000000,-0.126249,0.248758,147.967056,148.437500
2059.000000,-0.386263,0.248634,147.966400,148.437500
2060.000000,-0.572003,0.246448,147.948303,148.437500
2061.000000,-0.126555,0.250456,147.936874,148.437500
2062.000000,0.530346,0.250642,147.945435,148.437500
2063.000000,0.353494,0.252829,147.955002,148.437500
2064.000000,0.343347,0.252683,147.937378,148.437500
2065.000000,-0.367952,0.253873,147.916489,148.437500
2066.000000,-0.501698,0.254444,147.925110,148.437500
2067.000000,-0.575132,0.254562,147.944046,148.437500
2068.000000,-0.227417,0.255856,147.943222,148.437500
2069.000000,0.149252,0.255972,147.932602,148.437500
2070.000000,0.274834,0.255645,147.936951,148.437500
2071.000000,-0.152571,0.253274,147.933121,148.437500
2072.000000,-0.266022,0.253614,147.911148,148.437500
2073.000000,-0.109083,0.254973,147.896515,148.437500
2074.000000,-0.295243,0.255143,147.911102,148.437500
2075.000000,-0.019589,0.256194,147.916687,148.437500
2076.000000,0.193732,0.255926,147.901474,148.437500
2077.000000,0.017185,0.256096,147.880081,148.437500
2078.000000,-0.295930,0.256054,147.891068,148.437500
2079.000000,-0.565785,0.257077,147.907013,148.437500
2080.000000,-0.261063,0.258541,147.903595,148.437500
2081.000000,0.261101,0.258615,147.897018,148.437500
2082.000000,0.710937,0.259184,147.898453,148.437500
2083.000000,0.404765,0.262127,147.896820,148.437500
2084.000000,-0.046979,0.261960,147.874969,148.437500
2085.000000,-0.478199,0.261566,147.855850,148.437500
2086.000000,-0.547932,0.262876,147.868790,148.437500
2087.000000,-0.464847,0.263827,147.893723,148.437500
2088.000000,-0.078641,0.263219,147.894089,148.437500
2089.000000,0.390726,0.262933,147.881531,148.437500
2090.000000,0.540112,0.264643,147.888184,148.437500
2091.000000,0.038243,0.267189,147.889282,148.437500
2092.000000,-0.152266,0.267215,147.874710,148.437500
2093.000000,-0.057660,0.267311,147.860718,148.437500
2094.000000,-0.283570,0.267369,147.873550,148.437500
2095.000000,-0.006161,0.267981,147.882996,148.437500
2096.000000,0.187324,0.267642,147.867615,148.437500
2097.000000,0.013523,0.267995,147.846970,148.437500
2098.000000,-0.298066,0.267995,147.860992,148.437500
2099.000000,-0.567845,0.268766,147.881851,148.437500
2100.000000,-0.250610,0.270763,147.879745,148.437500
2101.000000,0.293908,0.271135,147.868484,148.437500
2102.000000,0.743896,0.272335,147.871811,148.437500
2103.000000,0.418879,0.278306,147.877350,148.437500
2104.000000,-0.042782,0.277575,147.867172,148.437500
2105.000000,-0.480030,0.274650,147.856140,148.437500
2106.000000,-0.557546,0.278475,147.870300,148.437500
2107.000000,-0.480335,0.282582,147.888733,148.437500
2108.000000,-0.099241,0.284620,147.883469,148.437500
2109.000000,0.363108,0.284604,147.869385,148.437500
2110.000000,0.527371,0.286118,147.880692,148.437500
2111.000000,0.037556,0.287708,147.891144,148.437500
2112.000000,-0.156004,0.287360,147.885544,148.437500
2113.000000,-0.072919,0.287685,147.877182,148.437500
2114.000000,-0.295090,0.287261,147.890778,148.437500
2115.000000,-0.002651,0.288655,147.900558,148.437500
2116.000000,0.202354,0.288557,147.887054,148.437500
2117.000000,0.039921,0.289109,147.868866,148.437500
2118.000000,-0.268387,0.288047,147.884491,148.437500
2119.000000,-0.596380,0.288117,147.908066,148.437500
2120.000000,-0.339113,0.293791,147.907425,148.437500
2121.000000,0.223487,0.295629,147.897430,148.437500
2122.000000,0.645933,0.296454,147.904144,148.437500
2123.000000,0.383783,0.302892,147.910416,148.437500
2124.000000,-0.025692,0.305303,147.901337,148.437500
2125.000000,-0.489872,0.305194,147.891098,148.437500
2126.000000,-0.556401,0.308815,147.905960,148.437500
2127.000000,-0.481556,0.312858,147.923813,148.437500
2128.000000,-0.078412,0.316326,147.916946,148.437500
2129.000000,0.361505,0.316388,147.901886,148.437500
2130.000000,0.442073,0.318443,147.914734,148.437500
2131.000000,-0.043011,0.321495,147.927628,148.437500
2132.000000,-0.213149,0.321415,147.925934,148.437500
2133.000000,-0.103590,0.322052,147.920166,148.437500
2134.000000,-0.283341,0.321879,147.929688,148.437500
2135.000000,0.037404,0.322937,147.934540,148.437500
2136.000000,0.200294,0.322456,147.918320,148.437500
2137.000000,0.033589,0.322071,147.900558,148.437500
2138.000000,-0.304856,0.321299,147.915771,148.437500
2139.000000,-0.570211,0.321306,147.940369,148.437500
2140.000000,-0.271744,0.326318,147.942139,148.437500
2141.000000,0.282082,0.327434,147.933365,148.437500
2142.000000,0.720932,0.328029,147.943375,148.437500
2143.000000,0.402934,0.334569,147.949417,148.437500
2144.000000,-0.054456,0.336408,147.940933,148.437500
2145.000000,-0.477207,0.335703,147.928101,148.437500
2146.000000,-0.542973,0.339076,147.944199,148.437500
2147.000000,-0.450198,0.342865,147.956604,148.437500
2148.000000,-0.055829,0.345263,147.946121,148.437500
2149.000000,0.404078,0.344962,147.929428,148.437500
2150.000000,0.516003,0.347230,147.940887,148.437500
2151.000000,0.015507,0.350407,147.956512,148.437500
2152.000000,-0.169890,0.350402,147.953720,148.437500
2153.000000,-0.068036,0.350811,147.943390,148.437500
2154.000000,-0.275025,0.350453,147.949173,148.437500
2155.000000,0.027638,0.351377,147.956833,148.437500
2156.000000,0.205940,0.351234,147.949799,148.437500
2157.000000,0.035954,0.351462,147.937195,148.437500
2158.000000,-0.291886,0.351430,147.942780,148.437500
2159.000000,-0.562810,0.352414,147.948471,148.437500
2160.000000,-0.256561,0.354784,147.930725,148.437500
2161.000000,0.291924,0.351081,147.911880,148.437500
2162.000000,0.730926,0.352065,147.927597,148.437500
2163.000000,0.409953,0.355640,147.942032,148.437500
2164.000000,-0.053845,0.356245,147.937851,148.437500
2165.000000,-0.479725,0.354628,147.926941,148.437500
2166.000000,-0.547093,0.355961,147.931290,148.437500
2167.000000,-0.458133,0.356629,147.927628,148.437500
2168.000000,-0.058957,0.354930,147.909637,148.437500
2169.000000,0.403010,0.354250,147.893417,148.437500
2170.000000,0.516003,0.356223,147.902481,148.437500
2171.000000,0.012760,0.358890,147.916153,148.437500
2172.000000,-0.176223,0.358568,147.906265,148.437500
2173.000000,-0.076581,0.358013,147.888168,148.437500
2174.000000,-0.275864,0.357929,147.891235,148.437500
2175.000000,0.031376,0.357774,147.899994,148.437500
2176.000000,0.205940,0.357783,147.895767,148.437500
2177.000000,0.037556,0.357851,147.885147,148.437500
2178.000000,-0.292496,0.357867,147.888077,148.437500
2179.000000,-0.558385,0.357838,147.882645,148.437500
2180.000000,-0.251907,0.357722,147.853165,148.437500
2181.000000,0.295052,0.357656,147.829834,148.437500
2182.000000,0.733825,0.357920,147.850204,148.437500
2183.000000,0.421473,0.358382,147.871811,148.437500
2184.000000,-0.036603,0.358574,147.869431,148.437500
2185.000000,-0.467746,0.358562,147.856186,148.437500
2186.000000,-0.534962,0.358424,147.856888,148.437500
2187.000000,-0.454852,0.358228,147.847015,148.437500
2188.000000,-0.065900,0.358100,147.822678,148.437500
2189.000000,0.388437,0.358074,147.809280,148.437500
2190.000000,0.516003,0.358050,147.819809,148.437500
2191.000000,0.022297,0.357694,147.836121,148.437500
2192.000000,-0.166304,0.357680,147.822006,148.437500
2193.000000,-0.076658,0.357743,147.800400,148.437500
2194.000000,-0.287232,0.357778,147.805710,148.437500
2195.000000,-0.002270,0.357808,147.818069,148.437500
2196.000000,0.204261,0.357807,147.820847,148.437500
2197.000000,0.043965,0.357900,147.814880,148.437500
2198.000000,-0.259689,0.357924,147.818726,148.437500
2199.000000,-0.551289,0.357625,147.807343,148.437500
2200.000000,-0.284333,0.357366,147.772156,148.437500
2201.000000,0.223335,0.357618,147.750748,148.437500
2202.000000,0.647612,0.357108,147.776642,148.437500
2203.000000,0.430476,0.355227,147.799423,148.437500
2204.000000,0.022450,0.355365,147.796173,148.437500
2205.000000,-0.451419,0.355347,147.779160,148.437500
2206.000000,-0.531682,0.354972,147.783234,148.437500
2207.000000,-0.479419,0.354575,147.783768,148.437500
2208.000000,-0.104887,0.354562,147.771683,148.437500
2209.000000,0.352655,0.354578,147.768631,148.437500
2210.000000,0.534504,0.354473,147.781235,148.437500
2211.000000,0.040227,0.354580,147.796387,148.437500
2212.000000,-0.165541,0.354583,147.779770,148.437500
2213.000000,-0.093061,0.354626,147.758453,148.437500
2214.000000,-0.309129,0.354673,147.771393,148.437500
2215.000000,-0.010586,0.354793,147.796677,148.437500
2216.000000,0.214714,0.354794,147.812286,148.437500
2217.000000,0.066014,0.354867,147.814285,148.437500
2218.000000,-0.229324,0.354906,147.823242,148.437500
2219.000000,-0.574788,0.354632,147.812561,148.437500
2220.000000,-0.339113,0.354275,147.780045,148.437500
2221.000000,0.231422,0.354275,147.759674,148.437500
2222.000000,0.661841,0.354326,147.794312,148.437500
2223.000000,0.468357,0.354619,147.835800,148.437500
2224.000000,0.038853,0.355634,147.842163,148.437500
2225.000000,-0.444171,0.355646,147.829498,148.437500
2226.000000,-0.543584,0.355045,147.838638,148.437500
2227.000000,-0.497807,0.354847,147.844238,148.437500
2228.000000,-0.142729,0.355071,147.834229,148.437500
2229.000000,0.322747,0.355271,147.830643,148.437500
2230.000000,0.562810,0.354898,147.850876,148.437500
2231.000000,0.052129,0.356603,147.879044,148.437500
2232.000000,-0.196441,0.356615,147.876389,148.437500
2233.000000,-0.130522,0.356519,147.864853,148.437500
2234.000000,-0.358797,0.356607,147.883606,148.437500
2235.000000,-0.021191,0.357286,147.909225,148.437500
2236.000000,0.221733,0.357273,147.925323,148.437500
2237.000000,0.101568,0.357399,147.930359,148.437500
2238.000000,-0.182021,0.357528,147.945221,148.437500
2239.000000,-0.602865,0.356691,147.944595,148.437500
2240.000000,-0.505360,0.357227,147.922241,148.437500
2241.000000,0.148871,0.359759,147.910202,148.437500
2242.000000,0.600500,0.358960,147.948608,148.437500
2243.000000,0.491474,0.356737,147.992859,148.437500
2244.000000,0.059377,0.357845,148.001282,148.437500
2245.000000,-0.443942,0.357853,147.991394,148.437500
2246.000000,-0.565785,0.357425,148.006485,148.437500
2247.000000,-0.530919,0.357778,148.021347,148.437500
2248.000000,-0.181487,0.358883,148.017334,148.437500
2249.000000,0.297951,0.359298,148.017502,148.437500
2250.000000,0.583028,0.358260,148.040863,148.437500
2251.000000,0.067006,0.359287,148.065521,148.437500
2252.000000,-0.218566,0.359346,148.061829,148.437500
2253.000000,-0.149138,0.359609,148.052399,148.437500
2254.000000,-0.370088,0.359854,148.073502,148.437500
2255.000000,-0.007916,0.360705,148.101837,148.437500
2256.000000,0.220207,0.360695,148.113724,148.437500
2257.000000,0.103017,0.360779,148.113815,148.437500
2258.000000,-0.185531,0.360909,148.130096,148.437500
2259.000000,-0.575856,0.360204,148.137634,148.437500
2260.000000,-0.415789,0.360411,148.126907,148.437500
2261.000000,0.243782,0.361893,148.120605,148.437500
2262.000000,0.662528,0.361536,148.147888,148.437500
2263.000000,0.505970,0.360216,148.174164,148.437500
2264.000000,0.143530,0.361434,148.168701,148.437500
2265.000000,-0.373217,0.361679,148.155609,148.437500
2266.000000,-0.501316,0.360421,148.176193,148.437500
2267.000000,-0.498722,0.359755,148.201294,148.437500
2268.000000,-0.179351,0.360294,148.203613,148.437500
2269.000000,0.255226,0.360692,148.202484,148.437500
2270.000000,0.549229,0.359341,148.221603,148.437500
2271.000000,0.165274,0.359833,148.233856,148.437500
2272.000000,0.006275,0.360210,148.226028,148.437500
2273.000000,0.035878,0.359779,148.215179,148.437500
2274.000000,-0.304170,0.359716,148.235870,148.437500
2275.000000,-0.115110,0.359944,148.256790,148.437500
2276.000000,0.209907,0.360114,148.254974,148.437500
2277.000000,0.086614,0.360137,148.243881,148.437500
2278.000000,-0.113279,0.360222,148.256592,148.437500
2279.000000,-0.548772,0.359211,148.273514,148.437500
2280.000000,-0.459354,0.359063,148.270248,148.437500
2281.000000,0.174506,0.361112,148.260788,148.437500
2282.000000,0.591649,0.360327,148.272476,148.437500
2283.000000,0.491474,0.357702,148.284286,148.437500
2284.000000,0.223564,0.358595,148.274429,148.437500
2285.000000,-0.346590,0.359272,148.260834,148.437500
2286.000000,-0.502384,0.357896,148.275543,148.437500
2287.000000,-0.519780,0.357424,148.289337,148.437500
2288.000000,-0.214599,0.358308,148.274445,148.437500
2289.000000,0.208686,0.358890,148.259277,148.437500
2290.000000,0.479801,0.357391,148.276321,148.437500
2291.000000,0.104391,0.356887,148.285751,148.437500
2292.000000,-0.038586,0.357032,148.277588,148.437500
2293.000000,0.037861,0.356666,148.268890,148.437500
2294.000000,-0.259232,0.356603,148.275665,148.437500
2295.000000,-0.135634,0.356389,148.277451,148.437500
2296.000000,0.183890,0.356647,148.259460,148.437500
2297.000000,0.072499,0.356536,148.239624,148.437500
2298.000000,-0.131285,0.356582,148.246536,148.437500
2299.000000,-0.511921,0.355878,148.264343,148.437500
2300.000000,-0.352541,0.355289,148.260971,148.437500
2301.000000,0.186866,0.355900,148.246262,148.437500
2302.000000,0.574788,0.355690,148.246124,148.437500
2303.000000,0.488041,0.354436,148.244064,148.437500
2304.000000,0.277962,0.355181,148.224640,148.437500
2305.000000,-0.295090,0.356260,148.207932,148.437500
2306.000000,-0.459964,0.354618,148.222107,148.437500
2307.000000,-0.498112,0.353614,148.230240,148.437500
2308.000000,-0.214294,0.353873,148.206390,148.437500
2309.000000,0.194495,0.354366,148.184631,148.437500
2310.000000,0.500782,0.353143,148.201126,148.437500
2311.000000,0.191405,0.352648,148.210312,148.437500
2312.000000,0.067884,0.353144,148.202042,148.437500
2313.000000,0.138075,0.352821,148.192627,148.437500
2314.000000,-0.187781,0.352969,148.194656,148.437500
2315.000000,-0.176947,0.352113,148.187622,148.437500
2316.000000,0.145094,0.352556,148.158157,148.437500
2317.000000,0.066205,0.352201,148.137695,148.437500
2318.000000,-0.143759,0.352201,148.146423,148.437500
2319.000000,-0.507610,0.351748,148.170273,148.437500
2320.000000,-0.337472,0.350712,148.165436,148.437500
2321.000000,0.209869,0.350697,148.147827,148.437500
2322.000000,0.621328,0.350561,148.147247,148.437500
2323.000000,0.498417,0.349819,148.145905,148.437500
2324.000000,0.196517,0.350234,148.131485,148.437500
2325.000000,-0.380350,0.350763,148.119766,148.437500
2326.000000,-0.527371,0.350012,148.134277,148.437500
2327.000000,-0.551022,0.349764,148.134598,148.437500
2328.000000,-0.231193,0.350561,148.103806,148.437500
2329.000000,0.207351,0.351033,148.082047,148.437500
2330.000000,0.524357,0.350160,148.102402,148.437500
2331.000000,0.148070,0.349563,148.112411,148.437500
2332.000000,-0.043965,0.349837,148.103882,148.437500
2333.000000,0.022488,0.349313,148.090729,148.437500
2334.000000,-0.273156,0.349076,148.095001,148.437500
2335.000000,-0.113470,0.348300,148.095642,148.437500
2336.000000,0.177901,0.348479,148.077560,148.437500
2337.000000,0.041104,0.348227,148.067886,148.437500
2338.000000,-0.184424,0.348103,148.078125,148.437500
2339.000000,-0.538052,0.348116,148.098709,148.437500
2340.000000,-0.307488,0.347052,148.092361,148.437500
2341.000000,0.261139,0.344727,148.075027,148.437500
2342.000000,0.707008,0.345394,148.083740,148.437500
2343.000000,0.555409,0.347404,148.098312,148.437500
2344.000000,0.237182,0.348366,148.102264,148.437500
2345.000000,-0.302987,0.349122,148.099442,148.437500
2346.000000,-0.454356,0.347611,148.113892,148.437500
2347.000000,-0.492733,0.345972,148.110245,148.437500
2348.000000,-0.225319,0.345407,148.080536,148.437500
2349.000000,0.147230,0.345665,148.060623,148.437500
2350.000000,0.430819,0.344693,148.092407,148.437500
2351.000000,0.153029,0.342447,148.128372,148.437500
2352.000000,-0.009327,0.342724,148.134048,148.437500
2353.000000,0.024853,0.342027,148.124176,148.437500
2354.000000,-0.124609,0.341711,148.128876,148.437500
2355.000000,-0.252785,0.339929,148.129944,148.437500
2356.000000,-0.052205,0.340867,148.119980,148.437500
2357.000000,0.035611,0.340195,148.116440,148.437500
2358.000000,-0.118811,0.340058,148.132599,148.437500
2359.000000,-0.432383,0.339759,148.158142,148.437500
2360.000000,-0.499599,0.337624,148.157257,148.437500
2361.000000,-0.055104,0.338758,148.145996,148.437500
2362.000000,0.299287,0.337924,148.162659,148.437500
2363.000000,0.351549,0.332715,148.183228,148.437500
2364.000000,0.306764,0.330719,148.194550,148.437500
2365.000000,0.042248,0.331828,148.196503,148.437500
2366.000000,-0.351053,0.329750,148.212723,148.437500
2367.000000,-0.441310,0.327802,148.214066,148.437500
2368.000000,-0.363260,0.326978,148.193237,148.437500
2369.000000,-0.036107,0.328500,148.182159,148.437500
2370.000000,0.318971,0.327527,148.218796,148.437500
2371.000000,0.258240,0.324461,148.258881,148.437500
2372.000000,0.056973,0.325067,148.267517,148.437500
2373.000000,0.187362,0.325116,148.261002,148.437500
2374.000000,0.081388,0.325636,148.273560,148.437500
2375.000000,0.050107,0.324315,148.284836,148.437500
2376.000000,0.120680,0.324149,148.282715,148.437500
2377.000000,-0.016346,0.323694,148.285278,148.437500
2378.000000,-0.074178,0.323582,148.305817,148.437500
2379.000000,-0.292153,0.323469,148.327209,148.437500
2380.000000,-0.212654,0.320116,148.322678,148.437500
2381.000000,0.067273,0.317516,148.311234,148.437500
2382.000000,0.349718,0.317107,148.332352,148.437500
2383.000000,0.360094,0.313495,148.361755,148.437500
2384.000000,0.416018,0.311706,148.373932,148.437500
2385.000000,0.093976,0.313674,148.373062,148.437500
2386.000000,-0.219291,0.311895,148.389786,148.437500
2387.000000,-0.235466,0.308603,148.397171,148.437500
2388.000000,-0.050679,0.305104,148.385834,148.437500
2389.000000,0.303788,0.304390,148.380310,148.437500
2390.000000,0.535420,0.305190,148.407440,148.437500
2391.000000,0.307450,0.306114,148.433289,148.437500
2392.000000,0.099317,0.307476,148.429321,148.437500
2393.000000,0.045682,0.307613,148.419724,148.437500
2394.000000,-0.225776,0.307623,148.439423,148.437500
2395.000000,-0.398737,0.307359,148.461670,148.437500
2396.000000,-0.089895,0.309638,148.466736,148.437500
2397.000000,-0.045491,0.309222,148.469101,148.437500
2398.000000,0.006390,0.309171,148.485580,148.437500
2399.000000,0.046445,0.308892,148.496262,148.437500
2400.000000,-0.054646,0.304656,148.488037,148.437500
2401.000000,-0.094396,0.302659,148.475021,148.437500
2402.000000,-0.166800,0.302229,148.498886,148.437500
2403.000000,-0.265679,0.297182,148.521164,148.437500
2404.000000,-0.271782,0.294348,148.517059,148.437500
2405.000000,-0.325723,0.294290,148.504135,148.437500
2406.000000,-0.294137,0.294613,148.520416,148.437500
2407.000000,-0.130407,0.292483,148.540146,148.437500
2408.000000,-0.054189,0.288506,148.538177,148.437500
2409.000000,-0.054646,0.287760,148.530823,148.437500
2410.000000,-0.006733,0.287154,148.542923,148.437500
2411.000000,-0.006733,0.282754,148.551117,148.437500
2412.000000,0.035916,0.282106,148.542297,148.437500
2413.000000,0.095579,0.282047,148.534195,148.437500
2414.000000,0.086652,0.281871,148.547852,148.437500
2415.000000,0.110151,0.281379,148.559052,148.437500
2416.000000,0.130369,0.281038,148.544083,148.437500
2417.000000,0.028897,0.280965,148.529282,148.437500
2418.000000,0.052777,0.280902,148.546280,148.437500
2419.000000,0.119764,0.280584,148.559250,148.437500
2420.000000,0.111601,0.276214,148.554688,148.437500
2421.000000,0.168746,0.274371,148.547348,148.437500
2422.000000,0.176757,0.274088,148.553848,148.437500
2423.000000,0.137007,0.267537,148.548843,148.437500
2424.000000,0.140898,0.263210,148.521805,148.437500
2425.000000,0.070706,0.262853,148.498871,148.437500
2426.000000,0.042782,0.260183,148.514267,148.437500
2427.000000,0.124723,0.254818,148.539993,148.437500
2428.000000,0.119154,0.249101,148.539581,148.437500
2429.000000,0.057889,0.248312,148.526520,148.437500
2430.000000,0.077268,0.247513,148.525909,148.437500
2431.000000,0.037594,0.242018,148.518890,148.437500
2432.000000,0.048352,0.241594,148.500198,148.437500
2433.000000,0.077420,0.241602,148.488831,148.437500
2434.000000,0.052014,0.241716,148.500916,148.437500
2435.000000,0.062238,0.240224,148.504013,148.437500
2436.000000,0.070478,0.240036,148.478912,148.437500
2437.000000,-0.035496,0.239480,148.457962,148.437500
2438.000000,-0.026188,0.239471,148.474045,148.437500
2439.000000,0.017834,0.238774,148.486343,148.437500
2440.000000,-0.000324,0.232640,148.481003,148.437500
2441.000000,0.046368,0.230599,148.471481,148.437500
2442.000000,0.051480,0.229162,148.472198,148.437500
2443.000000,0.018597,0.218044,148.460892,148.437500
2444.000000,0.026074,0.210860,148.426117,148.437500
2445.000000,-0.027562,0.209538,148.401627,148.437500
2446.000000,-0.044652,0.207354,148.411453,148.437500
2447.000000,0.038434,0.202364,148.437973,148.437500
2448.000000,0.041638,0.196311,148.432571,148.437500
2449.000000,-0.007725,0.195059,148.414169,148.437500
2450.000000,0.016918,0.194504,148.411545,148.437500
2451.000000,-0.012074,0.189680,148.406342,148.437500
2452.000000,0.002651,0.189066,148.390869,148.437500
2453.000000,0.040341,0.189063,148.381241,148.437500
2454.000000,0.022335,0.189090,148.390686,148.437500
2455.000000,0.041028,0.188692,148.383148,148.437500
2456.000000,0.052319,0.187036,148.347092,148.437500
2457.000000,-0.032673,0.187037,148.321594,148.437500
2458.000000,-0.019780,0.187031,148.338806,148.437500
2459.000000,0.025463,0.186664,148.348175,148.437500
2460.000000,0.010967,0.181605,148.339493,148.437500
2461.000000,0.054837,0.174601,148.323715,148.437500
2462.000000,0.060178,0.174600,148.322845,148.437500
2463.000000,0.033780,0.172122,148.314178,148.437500
2464.000000,0.044385,0.168527,148.285904,148.437500
2465.000000,-0.001774,0.165771,148.267426,148.437500
2466.000000,-0.014515,0.165717,148.276093,148.437500
2467.000000,0.059339,0.161963,148.297134,148.437500
2468.000000,0.065824,0.155947,148.287415,148.437500
2469.000000,0.025082,0.151800,148.265427,148.437500
2470.000000,0.046521,0.151778,148.266388,148.437500
2471.000000,0.012493,0.148461,148.267151,148.437500
2472.000000,0.024929,0.146204,148.264297,148.437500
2473.000000,0.063916,0.146114,148.260574,148.437500
2474.000000,0.042554,0.145048,148.267624,148.437500
2475.000000,0.058270,0.144882,148.254776,148.437500
2476.000000,0.061856,0.144913,148.219543,148.437500
2477.000000,-0.019322,0.144542,148.194946,148.437500
2478.000000,-0.005055,0.144546,148.221527,148.437500
2479.000000,0.031186,0.144356,148.253723,148.437500
2480.000000,0.013561,0.141403,148.255219,148.437500
2481.000000,0.051022,0.139802,148.239120,148.437500
2482.000000,0.052472,0.139733,148.234375,148.437500
2483.000000,0.019665,0.135388,148.224884,148.437500
2484.000000,0.026150,0.130526,148.206650,148.437500
2485.000000,-0.023899,0.123746,148.196976,148.437500
2486.000000,-0.043584,0.123412,148.207916,148.437500
2487.000000,0.024166,0.121526,148.224869,148.437500
2488.000000,0.022335,0.119248,148.215225,148.437500
2489.000000,-0.020237,0.119161,148.196686,148.437500
2490.000000,-0.003529,0.115241,148.204147,148.437500
2491.000000,-0.035725,0.102049,148.214294,148.437500
2492.000000,-0.025731,0.097373,148.216965,148.437500
2493.000000,0.002422,0.096899,148.211609,148.437500
2494.000000,-0.019017,0.096792,148.216492,148.437500
2495.000000,-0.006428,0.094141,148.206558,148.437500
2496.000000,-0.000782,0.085282,148.178436,148.437500
2497.000000,-0.090352,0.084807,148.160126,148.437500
2498.000000,-0.079137,0.085165,148.184250,148.437500
2499.000000,-0.037861,0.085530,148.209808,148.437500
2500.000000,-0.051442,0.085487,148.207138,148.437500
2501.000000,-0.011540,0.085467,148.191040,148.437500
2502.000000,-0.001698,0.084952,148.193726,148.437500
2503.000000,-0.033131,0.083299,148.192993,148.437500
2504.000000,-0.027562,0.079018,148.178665,148.437500
2505.000000,-0.077611,0.074248,148.169174,148.437500
2506.000000,-0.091115,0.067172,148.179428,148.437500
2507.000000,-0.023823,0.061073,148.189819,148.437500
2508.000000,-0.020542,0.059712,148.174042,148.437500
2509.000000,-0.059224,0.059501,148.152115,148.437500
2510.000000,-0.022107,0.059545,148.161041,148.437500
2511.000000,-0.049039,0.059582,148.175308,148.437500
2512.000000,-0.038663,0.059780,148.175751,148.437500
2513.000000,-0.014096,0.059797,148.165421,148.437500
2514.000000,-0.029583,0.059045,148.168167,148.437500
2515.000000,-0.019284,0.058481,148.160416,148.437500
